年月日,基準価額(円),純資産総額（百万円）,分配金,決算期
2016年09月08日,10053,1,,
2016年09月09日,10089,1,,
2016年09月12日,9994,2,,
2016年09月13日,9893,2,,
2016年09月14日,9912,3,,
2016年09月15日,9894,4,,
2016年09月16日,9880,6,,
2016年09月20日,9887,7,,
2016年09月21日,9880,7,,
2016年09月23日,9970,9,,
2016年09月26日,9873,9,,
2016年09月27日,9808,9,,
2016年09月28日,9915,10,,
2016年09月29日,9987,11,,
2016年09月30日,9888,12,,
2016年10月03日,9959,13,,
2016年10月04日,10054,13,,
2016年10月05日,10054,17,,
2016年10月06日,10155,18,,
2016年10月07日,10161,20,,
2016年10月11日,10191,21,,
2016年10月12日,10069,21,,
2016年10月13日,10141,23,,
2016年10月14日,10090,24,,
2016年10月17日,10091,25,,
2016年10月18日,10076,30,,
2016年10月19日,10128,34,,
2016年10月20日,10158,40,,
2016年10月21日,10191,50,,
2016年10月24日,10133,53,,
2016年10月25日,10219,63,,
2016年10月26日,10212,77,,
2016年10月27日,10191,81,,
2016年10月28日,10200,84,,
2016年10月31日,10135,82,,
2016年11月01日,10185,85,,
2016年11月02日,10079,98,,
2016年11月04日,9972,99,,
2016年11月07日,10063,101,,
2016年11月08日,10152,103,,
2016年11月09日,10004,95,,
2016年11月10日,10101,96,,
2016年11月11日,9896,95,,
2016年11月14日,9831,106,,
2016年11月15日,9777,105,,
2016年11月16日,9936,107,,
2016年11月17日,9883,110,,
2016年11月18日,9952,110,,
2016年11月21日,9973,117,,
2016年11月22日,10028,117,,
2016年11月24日,10098,120,,
2016年11月25日,10172,124,,
2016年11月28日,10059,123,,
2016年11月29日,10116,127,,
2016年11月30日,10141,133,,
2016年12月01日,10325,136,,
2016年12月02日,10191,135,,
2016年12月05日,10180,136,,
2016年12月06日,10272,137,,
2016年12月07日,10413,143,,
2016年12月08日,10484,145,,
2016年12月09日,10487,147,,
2016年12月12日,10554,148,,
2016年12月13日,10592,152,,
2016年12月14日,10617,156,,
2016年12月15日,10729,158,,
2016年12月16日,10740,156,,
2016年12月19日,10668,159,,
2016年12月20日,10642,160,,
2016年12月21日,10734,165,,
2016年12月22日,10754,170,,
2016年12月26日,10703,171,,
2016年12月27日,10744,172,,
2016年12月28日,10770,173,,
2016年12月29日,10714,172,,
2016年12月30日,10721,187,,
2017年01月04日,10754,190,,
2017年01月05日,10715,190,,
2017年01月06日,10694,195,,
2017年01月10日,10690,197,,
2017年01月11日,10635,199,,
2017年01月12日,10558,202,,
2017年01月13日,10655,205,,
2017年01月16日,10596,208,,
2017年01月17日,10532,213,,
2017年01月18日,10502,213,,
2017年01月19日,10630,221,,
2017年01月20日,10648,225,,
2017年01月23日,10601,225,,
2017年01月24日,10548,226,,
2017年01月25日,10640,233,,
2017年01月26日,10591,232,,
2017年01月27日,10653,237,,
2017年01月30日,10710,239,,
2017年01月31日,10652,239,,
2017年02月01日,10621,241,,
2017年02月02日,10642,242,,
2017年02月03日,10685,248,,
2017年02月06日,10690,249,,
2017年02月07日,10608,247,,
2017年02月08日,10636,254,,
2017年02月09日,10631,255,,
2017年02月10日,10810,263,,
2017年02月13日,10850,265,,
2017年02月14日,10837,266,,
2017年02月15日,10948,274,,
2017年02月16日,10947,275,,
2017年02月17日,10851,278,,
2017年02月20日,10757,280,,
2017年02月21日,10811,283,,
2017年02月22日,10846,284,,
2017年02月23日,10876,293,,
2017年02月24日,10893,294,,
2017年02月27日,10775,294,,
2017年02月28日,10809,297,,
2017年03月01日,10798,302,,
2017年03月02日,10912,307,,
2017年03月03日,10841,307,,
2017年03月06日,10868,309,,
2017年03月07日,10885,312,,
2017年03月08日,10914,324,,
2017年03月09日,10873,332,,
2017年03月10日,10863,333,,
2017年03月13日,10913,335,,
2017年03月14日,10934,339,,
2017年03月15日,10907,341,,
2017年03月16日,10919,342,,
2017年03月17日,11011,351,,
2017年03月21日,11011,351,,
2017年03月22日,10931,345,,
2017年03月23日,10953,355,,
2017年03月24日,10938,358,,
2017年03月27日,10919,358,,
2017年03月28日,10903,359,,
2017年03月29日,10877,362,,
2017年03月30日,10929,368,,
2017年03月31日,10989,368,,
2017年04月03日,10921,370,,
2017年04月04日,10822,368,,
2017年04月05日,10840,376,,
2017年04月06日,10782,375,,
2017年04月07日,10817,378,,
2017年04月10日,10852,380,,
2017年04月11日,10782,381,,
2017年04月12日,10675,383,,
2017年04月13日,10683,381,,
2017年04月14日,10725,384,,
2017年04月17日,10663,377,,
2017年04月18日,10770,380,,
2017年04月19日,10728,379,,
2017年04月20日,10722,385,,
2017年04月21日,10786,390,,
2017年04月24日,10927,397,,
2017年04月25日,10941,416,,
2017年04月26日,11072,427,,
2017年04月27日,10995,423,,
2017年04月28日,10990,428,,
2017年05月01日,11049,429,,
2017年05月02日,11097,429,,
2017年05月08日,11167,432,,
2017年05月09日,11151,437,,
2017年05月10日,11187,446,,
2017年05月11日,11280,451,,
2017年05月12日,11295,460,,
2017年05月15日,11291,462,,
2017年05月16日,11423,467,,
2017年05月17日,11356,469,,
2017年05月18日,11125,463,,
2017年05月19日,10964,457,,
2017年05月22日,11120,466,,
2017年05月23日,11108,469,,
2017年05月24日,11188,484,,
2017年05月25日,11236,485,,
2017年05月26日,11245,487,,
2017年05月29日,11219,486,,
2017年05月30日,11176,490,,
2017年05月31日,11136,488,,
2017年06月01日,11206,497,,
2017年06月02日,11276,505,,
2017年06月05日,11202,503,,
2017年06月06日,11201,507,,
2017年06月07日,11152,508,,
2017年06月08日,11160,514,,
2017年06月09日,11156,518,,
2017年06月12日,11189,527,,
2017年06月13日,11180,529,,
2017年06月14日,11204,540,,
2017年06月15日,11229,545,,
2017年06月16日,11273,549,,
2017年06月19日,11302,556,,
2017年06月20日,11322,558,,
2017年06月21日,11185,556,,
2017年06月22日,11151,558,,
2017年06月23日,11220,568,,
2017年06月26日,11270,573,,
2017年06月27日,11377,579,,
2017年06月28日,11374,584,,
2017年06月29日,11432,591,,
2017年06月30日,11332,588,,
2017年07月03日,11366,606,,
2017年07月04日,11415,635,,
2017年07月05日,11395,639,0.00,1
2017年07月06日,11329,635,,
2017年07月07日,11329,627,,
2017年07月10日,11425,630,,
2017年07月11日,11463,635,,
2017年07月12日,11404,636,,
2017年07月13日,11468,641,,
2017年07月14日,11508,646,,
2017年07月18日,11539,640,,
2017年07月19日,11537,642,,
2017年07月20日,11522,661,,
2017年07月21日,11570,671,,
2017年07月24日,11452,671,,
2017年07月25日,11453,674,,
2017年07月26日,11467,700,,
2017年07月27日,11461,702,,
2017年07月28日,11460,705,,
2017年07月31日,11395,703,,
2017年08月01日,11404,710,,
2017年08月02日,11405,717,,
2017年08月03日,11469,726,,
2017年08月04日,11393,725,,
2017年08月07日,11430,761,,
2017年08月08日,11448,765,,
2017年08月09日,11344,771,,
2017年08月10日,11346,789,,
2017年08月14日,11269,787,,
2017年08月15日,11382,790,,
2017年08月16日,11423,800,,
2017年08月17日,11407,804,,
2017年08月18日,11302,802,,
2017年08月21日,11342,812,,
2017年08月22日,11348,817,,
2017年08月23日,11406,823,,
2017年08月24日,11362,821,,
2017年08月25日,11442,828,,
2017年08月28日,11451,831,,
2017年08月29日,11398,833,,
2017年08月30日,11533,843,,
2017年08月31日,11569,855,,
2017年09月01日,11572,857,,
2017年09月04日,11577,860,,
2017年09月05日,11556,861,,
2017年09月06日,11483,856,,
2017年09月07日,11593,879,,
2017年09月08日,11578,887,,
2017年09月11日,11573,891,,
2017年09月12日,11686,901,,
2017年09月13日,11715,906,,
2017年09月14日,11710,924,,
2017年09月15日,11708,927,,
2017年09月19日,11791,934,,
2017年09月20日,11820,943,,
2017年09月21日,11899,965,,
2017年09月22日,11873,980,,
2017年09月25日,11936,990,,
2017年09月26日,11765,996,,
2017年09月27日,11793,1011,,
2017年09月28日,11735,1011,,
2017年09月29日,11736,1018,,
2017年10月02日,11773,1027,,
2017年10月03日,11751,1028,,
2017年10月04日,11716,1036,,
2017年10月05日,11767,1043,,
2017年10月06日,11722,1037,,
2017年10月10日,11613,1030,,
2017年10月11日,11613,1039,,
2017年10月12日,11688,1055,,
2017年10月13日,11679,1056,,
2017年10月16日,11697,1064,,
2017年10月17日,11696,1066,,
2017年10月18日,11673,1080,,
2017年10月19日,11752,1153,,
2017年10月20日,11755,1157,,
2017年10月23日,11791,1216,,
2017年10月24日,11693,1265,,
2017年10月25日,11702,1273,,
2017年10月26日,11625,1267,,
2017年10月27日,11540,1257,,
2017年10月30日,11555,1261,,
2017年10月31日,11487,1258,,
2017年11月01日,11554,1270,,
2017年11月02日,11579,1275,,
2017年11月06日,11554,1274,,
2017年11月07日,11556,1272,,
2017年11月08日,11517,1228,,
2017年11月09日,11562,1167,,
2017年11月10日,11501,1098,,
2017年11月13日,11495,1100,,
2017年11月14日,11481,1102,,
2017年11月15日,11447,1102,,
2017年11月16日,11402,1104,,
2017年11月17日,11474,1114,,
2017年11月20日,11425,1115,,
2017年11月21日,11449,1120,,
2017年11月22日,11427,1126,,
2017年11月24日,11452,1128,,
2017年11月27日,11474,1127,,
2017年11月28日,11448,1122,,
2017年11月29日,11520,1133,,
2017年11月30日,11535,1138,,
2017年12月01日,11589,1146,,
2017年12月04日,11622,1151,,
2017年12月05日,11643,1188,,
2017年12月06日,11646,1177,,
2017年12月07日,11610,1182,,
2017年12月08日,11642,1188,,
2017年12月11日,11696,1196,,
2017年12月12日,11694,1201,,
2017年12月13日,11641,1213,,
2017年12月14日,11629,1220,,
2017年12月15日,11556,1218,,
2017年12月18日,11637,1239,,
2017年12月19日,11696,1258,,
2017年12月20日,11756,1276,,
2017年12月21日,11795,1287,,
2017年12月22日,11782,1267,,
2017年12月25日,11769,1269,,
2017年12月26日,11794,1276,,
2017年12月27日,11803,1277,,
2017年12月28日,11867,1283,,
2017年12月29日,11831,1313,,
2018年01月04日,12002,1335,,
2018年01月05日,12075,1346,,
2018年01月09日,12093,1365,,
2018年01月10日,11987,1358,,
2018年01月11日,11873,1356,,
2018年01月12日,11930,1370,,
2018年01月15日,11963,1386,,
2018年01月16日,11985,1399,,
2018年01月17日,11946,1395,,
2018年01月18日,12024,1425,,
2018年01月19日,12059,1432,,
2018年01月22日,12012,1430,,
2018年01月23日,12038,1438,,
2018年01月24日,11974,1450,,
2018年01月25日,12031,1459,,
2018年01月26日,12079,1470,,
2018年01月29日,11974,1462,,
2018年01月30日,11913,1459,,
2018年01月31日,11854,1465,,
2018年02月01日,11975,1487,,
2018年02月02日,12074,1502,,
2018年02月05日,12004,1492,,
2018年02月06日,11825,1472,,
2018年02月07日,11923,1493,,
2018年02月08日,11831,1474,,
2018年02月09日,11686,1460,,
2018年02月13日,11730,1481,,
2018年02月14日,11636,1470,,
2018年02月15日,11666,1474,,
2018年02月16日,11660,1475,,
2018年02月19日,11690,1490,,
2018年02月20日,11717,1491,,
2018年02月21日,11721,1492,,
2018年02月22日,11699,1491,,
2018年02月23日,11690,1482,,
2018年02月26日,11723,1488,,
2018年02月27日,11750,1494,,
2018年02月28日,11691,1494,,
2018年03月01日,11593,1486,,
2018年03月02日,11542,1482,,
2018年03月05日,11475,1479,,
2018年03月06日,11568,1494,,
2018年03月07日,11523,1496,,
2018年03月08日,11563,1504,,
2018年03月09日,11596,1511,,
2018年03月12日,11646,1521,,
2018年03月13日,11595,1518,,
2018年03月14日,11628,1540,,
2018年03月15日,11577,1536,,
2018年03月16日,11540,1535,,
2018年03月19日,11477,1535,,
2018年03月20日,11480,1539,,
2018年03月22日,11526,1557,,
2018年03月23日,11416,1555,,
2018年03月26日,11445,1568,,
2018年03月27日,11579,1594,,
2018年03月28日,11567,1600,,
2018年03月29日,11688,1620,,
2018年03月30日,11660,1619,,
2018年04月02日,11682,1624,,
2018年04月03日,11607,1614,,
2018年04月04日,11681,1624,,
2018年04月05日,11716,1642,,
2018年04月06日,11717,1646,,
2018年04月09日,11662,1642,,
2018年04月10日,11583,1634,,
2018年04月11日,11600,1641,,
2018年04月12日,11634,1668,,
2018年04月13日,11681,1678,,
2018年04月16日,11690,1686,,
2018年04月17日,11680,1692,,
2018年04月18日,11699,1704,,
2018年04月19日,11768,1715,,
2018年04月20日,11725,1718,,
2018年04月23日,11682,1727,,
2018年04月24日,11636,1723,,
2018年04月25日,11661,1745,,
2018年04月26日,11637,1743,,
2018年04月27日,11618,1746,,
2018年05月01日,11622,1750,,
2018年05月02日,11597,1749,,
2018年05月07日,11396,1729,,
2018年05月08日,11333,1724,,
2018年05月09日,11244,1710,,
2018年05月10日,11289,1734,,
2018年05月11日,11396,1756,,
2018年05月14日,11375,1750,,
2018年05月15日,11354,1752,,
2018年05月16日,11268,1753,,
2018年05月17日,11289,1763,,
2018年05月18日,11257,1763,,
2018年05月21日,11166,1757,,
2018年05月22日,11211,1769,,
2018年05月23日,11218,1783,,
2018年05月24日,11107,1767,,
2018年05月25日,11095,1769,,
2018年05月28日,11098,1773,,
2018年05月29日,11060,1775,,
2018年05月30日,10900,1749,,
2018年05月31日,11003,1773,,
2018年06月01日,11012,1775,,
2018年06月04日,11069,1790,,
2018年06月05日,11124,1804,,
2018年06月06日,11043,1794,,
2018年06月07日,11093,1806,,
2018年06月08日,11016,1796,,
2018年06月11日,11002,1796,,
2018年06月12日,11044,1812,,
2018年06月13日,11010,1783,,
2018年06月14日,10985,1780,,
2018年06月15日,10875,1759,,
2018年06月18日,10885,1757,,
2018年06月19日,10803,1747,,
2018年06月20日,10765,1741,,
2018年06月21日,10827,1754,,
2018年06月22日,10754,1751,,
2018年06月25日,10798,1759,,
2018年06月26日,10792,1759,,
2018年06月27日,10801,1766,,
2018年06月28日,10978,1802,,
2018年06月29日,10768,1778,,
2018年07月02日,10855,1795,,
2018年07月03日,10789,1785,,
2018年07月04日,10794,1787,,
2018年07月05日,10799,1789,0.00,2
2018年07月06日,10891,1805,,
2018年07月09日,10954,1822,,
2018年07月10日,11027,1836,,
2018年07月11日,11055,1848,,
2018年07月12日,11054,1858,,
2018年07月13日,11156,1877,,
2018年07月17日,11167,1887,,
2018年07月18日,11207,1897,,
2018年07月19日,11178,1903,,
2018年07月20日,11075,1890,,
2018年07月23日,10997,1879,,
2018年07月24日,11006,1884,,
2018年07月25日,11039,1896,,
2018年07月26日,11072,1899,,
2018年07月27日,11051,1898,,
2018年07月30日,11082,1905,,
2018年07月31日,11107,1912,,
2018年08月01日,11161,1922,,
2018年08月02日,11132,1915,,
2018年08月03日,11052,1906,,
2018年08月06日,11039,1906,,
2018年08月07日,10993,1899,,
2018年08月08日,11035,1909,,
2018年08月09日,10934,1894,,
2018年08月10日,10830,1872,,
2018年08月13日,10502,1817,,
2018年08月14日,10441,1812,,
2018年08月15日,10568,1841,,
2018年08月16日,10420,1821,,
2018年08月17日,10476,1835,,
2018年08月20日,10442,1829,,
2018年08月21日,10401,1827,,
2018年08月22日,10450,1849,,
2018年08月23日,10539,1867,,
2018年08月24日,10530,1869,,
2018年08月27日,10589,1884,,
2018年08月28日,10623,1900,,
2018年08月29日,10558,1888,,
2018年08月30日,10587,1910,,
2018年08月31日,10387,1879,,
2018年09月03日,10410,1894,,
2018年09月04日,10350,1889,,
2018年09月05日,10286,1877,,
2018年09月06日,10254,1886,,
2018年09月07日,10222,1883,,
2018年09月10日,10282,1893,,
2018年09月11日,10289,1897,,
2018年09月12日,10312,1907,,
2018年09月13日,10351,1916,,
2018年09月14日,10497,1947,,
2018年09月18日,10460,1946,,
2018年09月19日,10534,1967,,
2018年09月20日,10612,1989,,
2018年09月21日,10699,2008,,
2018年09月25日,10752,2024,,
2018年09月26日,10744,2025,,
2018年09月27日,10795,2033,,
2018年09月28日,10883,2053,,
2018年10月01日,10929,2059,,
2018年10月02日,10952,2065,,
2018年10月03日,10879,2057,,
2018年10月04日,10886,2059,,
2018年10月05日,10776,2039,,
2018年10月09日,10668,2020,,
2018年10月10日,10738,2038,,
2018年10月11日,10606,2021,,
2018年10月12日,10656,2035,,
2018年10月15日,10653,2034,,
2018年10月16日,10722,2047,,
2018年10月17日,10827,2076,,
2018年10月18日,10878,2092,,
2018年10月19日,10753,2076,,
2018年10月22日,10773,2080,,
2018年10月23日,10807,2089,,
2018年10月24日,10745,2087,,
2018年10月25日,10626,2067,,
2018年10月26日,10663,2080,,
2018年10月29日,10682,2088,,
2018年10月30日,10637,2086,,
2018年10月31日,10701,2102,,
2018年11月01日,10612,2086,,
2018年11月02日,10728,2112,,
2018年11月05日,10832,2140,,
2018年11月06日,10898,2154,,
2018年11月07日,10928,2163,,
2018年11月08日,11006,2180,,
2018年11月09日,10961,2173,,
2018年11月12日,10889,2161,,
2018年11月13日,10790,2140,,
2018年11月14日,10807,2143,,
2018年11月15日,10832,2143,,
2018年11月16日,10887,2168,,
2018年11月19日,10885,2172,,
2018年11月20日,10891,2175,,
2018年11月21日,10851,2170,,
2018年11月22日,10920,2188,,
2018年11月26日,10900,2182,,
2018年11月27日,10895,2181,,
2018年11月28日,10922,2193,,
2018年11月29日,10959,2203,,
2018年11月30日,11022,2216,,
2018年12月03日,11039,2221,,
2018年12月04日,11067,2233,,
2018年12月05日,10945,2228,,
2018年12月06日,10937,2285,,
2018年12月07日,10897,2277,,
2018年12月10日,10899,2286,,
2018年12月11日,10875,2283,,
2018年12月12日,10923,2300,,
2018年12月13日,10973,2311,,
2018年12月14日,10978,2315,,
2018年12月17日,10920,2303,,
2018年12月18日,10897,2299,,
2018年12月19日,10882,2311,,
2018年12月20日,10914,2318,,
2018年12月21日,10842,2305,,
2018年12月25日,10676,2270,,
2018年12月26日,10721,2278,,
2018年12月27日,10772,2289,,
2018年12月28日,10810,2296,,
2019年01月04日,10607,2255,,
2019年01月07日,10812,2299,,
2019年01月08日,10885,2326,,
2019年01月09日,10838,2256,,
2019年01月10日,10851,2258,,
2019年01月11日,10885,2267,,
2019年01月15日,10899,2277,,
2019年01月16日,10886,2276,,
2019年01月17日,10988,2309,,
2019年01月18日,10989,2317,,
2019年01月21日,11010,2327,,
2019年01月22日,10978,2327,,
2019年01月23日,10926,2316,,
2019年01月24日,11008,2339,,
2019年01月25日,11033,2347,,
2019年01月28日,11062,2358,,
2019年01月29日,11022,2354,,
2019年01月30日,11071,2370,,
2019年01月31日,11101,2376,,
2019年02月01日,11203,2400,,
2019年02月04日,11272,2418,,
2019年02月05日,11308,2424,,
2019年02月06日,11300,2513,,
2019年02月07日,11270,2512,,
2019年02月08日,11222,2517,,
2019年02月12日,11211,2518,,
2019年02月13日,11251,2526,,
2019年02月14日,11205,2524,,
2019年02月15日,11166,2521,,
2019年02月18日,11212,2535,,
2019年02月19日,11208,2548,,
2019年02月20日,11267,2561,,
2019年02月21日,11269,2577,,
2019年02月22日,11243,2578,,
2019年02月25日,11292,2597,,
2019年02月26日,11327,2608,,
2019年02月27日,11314,2611,,
2019年02月28日,11343,2620,,
2019年03月01日,11370,2627,,
2019年03月04日,11376,2631,,
2019年03月05日,11349,2684,,
2019年03月06日,11339,2705,,
2019年03月07日,11293,2705,,
2019年03月08日,11194,2691,,
2019年03月11日,11152,2686,,
2019年03月12日,11245,2703,,
2019年03月13日,11255,2714,,
2019年03月14日,11272,2725,,
2019年03月15日,11302,2740,,
2019年03月18日,11331,2753,,
2019年03月19日,11343,2766,,
2019年03月20日,11381,2783,,
2019年03月22日,11380,2784,,
2019年03月25日,11151,2730,,
2019年03月26日,11233,2757,,
2019年03月27日,11226,2766,,
2019年03月28日,11094,2734,,
2019年03月29日,11149,2750,,
2019年04月01日,11174,2758,,
2019年04月02日,11309,2793,,
2019年04月03日,11299,2716,,
2019年04月04日,11317,2721,,
2019年04月05日,11351,2724,,
2019年04月08日,11332,2718,,
2019年04月09日,11352,2725,,
2019年04月10日,11330,2726,,
2019年04月11日,11390,2741,,
2019年04月12日,11404,2751,,
2019年04月15日,11449,2765,,
2019年04月16日,11431,2770,,
2019年04月17日,11419,2772,,
2019年04月18日,11422,2776,,
2019年04月19日,11402,2775,,
2019年04月22日,11409,2784,,
2019年04月23日,11379,2777,,
2019年04月24日,11353,2771,,
2019年04月25日,11280,2752,,
2019年04月26日,11195,2733,,
2019年05月07日,11075,2701,,
2019年05月08日,10971,2678,,
2019年05月09日,10976,2743,,
2019年05月10日,10953,2743,,
2019年05月13日,11000,2760,,
2019年05月14日,10907,2744,,
2019年05月15日,10959,2760,,
2019年05月16日,10974,2766,,
2019年05月17日,10975,2769,,
2019年05月20日,10964,2774,,
2019年05月21日,10969,2780,,
2019年05月22日,11020,2800,,
2019年05月23日,10981,2795,,
2019年05月24日,10925,2790,,
2019年05月27日,10960,2809,,
2019年05月28日,10969,2818,,
2019年05月29日,10915,2804,,
2019年05月30日,10975,2829,,
2019年05月31日,10913,2815,,
2019年06月03日,10883,2809,,
2019年06月04日,10912,2818,,
2019年06月05日,10976,2841,,
2019年06月06日,10977,2836,,
2019年06月07日,11015,2850,,
2019年06月10日,11082,2871,,
2019年06月11日,11119,2884,,
2019年06月12日,11207,2914,,
2019年06月13日,11185,2908,,
2019年06月14日,11181,2911,,
2019年06月17日,11194,2923,,
2019年06月18日,11176,2917,,
2019年06月19日,11238,2943,,
2019年06月20日,11239,2945,,
2019年06月21日,11316,2972,,
2019年06月24日,11327,2980,,
2019年06月25日,11327,2981,,
2019年06月26日,11309,2967,,
2019年06月27日,11375,2990,,
2019年06月28日,11403,2993,,
2019年07月01日,11479,3015,,
2019年07月02日,11508,3023,,
2019年07月03日,11441,3016,,
2019年07月04日,11501,3029,,
2019年07月05日,11545,3041,0.00,3
2019年07月08日,11541,3040,,
2019年07月09日,11570,3047,,
2019年07月10日,11563,3049,,
2019年07月11日,11545,3047,,
2019年07月12日,11611,3076,,
2019年07月16日,11578,3067,,
2019年07月17日,11574,3067,,
2019年07月18日,11533,3082,,
2019年07月19日,11581,3097,,
2019年07月22日,11625,3115,,
2019年07月23日,11649,3125,,
2019年07月24日,11610,3121,,
2019年07月25日,11632,3128,,
2019年07月26日,11665,3140,,
2019年07月29日,11605,3129,,
2019年07月30日,11631,3141,,
2019年07月31日,11598,3136,,
2019年08月01日,11616,3144,,
2019年08月02日,11317,3066,,
2019年08月05日,11197,3047,,
2019年08月06日,11048,3004,,
2019年08月07日,11145,3045,,
2019年08月08日,11154,3055,,
2019年08月09日,11236,3086,,
2019年08月13日,11085,3050,,
2019年08月14日,11233,3097,,
2019年08月15日,11093,3072,,
2019年08月16日,11138,3088,,
2019年08月19日,11201,3114,,
2019年08月20日,11130,3093,,
2019年08月21日,11123,3087,,
2019年08月22日,11193,3112,,
2019年08月23日,11160,3108,,
2019年08月26日,10953,3055,,
2019年08月27日,11034,3079,,
2019年08月28日,10989,3066,,
2019年08月29日,11006,3084,,
2019年08月30日,11050,3104,,
2019年09月02日,11025,3099,,
2019年09月03日,11029,3102,,
2019年09月04日,11055,3109,,
2019年09月05日,11210,3159,,
2019年09月06日,11276,3178,,
2019年09月09日,11303,3189,,
2019年09月10日,11341,3199,,
2019年09月11日,11371,3214,,
2019年09月12日,11399,3225,,
2019年09月13日,11508,3266,,
2019年09月17日,11461,3259,,
2019年09月18日,11457,3259,,
2019年09月19日,11477,3280,,
2019年09月20日,11431,3261,,
2019年09月24日,11375,3230,,
2019年09月25日,11314,3213,,
2019年09月26日,11350,3214,,
2019年09月27日,11340,3205,,
2019年09月30日,11344,3211,,
2019年10月01日,11384,3222,,
2019年10月02日,11289,3197,,
2019年10月03日,11256,3200,,
2019年10月04日,11332,3224,,
2019年10月07日,11374,3236,,
2019年10月08日,11379,3242,,
2019年10月09日,11342,3235,,
2019年10月10日,11386,3250,,
2019年10月11日,11510,3288,,
2019年10月15日,11570,3319,,
2019年10月16日,11565,3321,,
2019年10月17日,11588,3336,,
2019年10月18日,11620,3340,,
2019年10月21日,11670,3353,,
2019年10月23日,11685,3355,,
2019年10月24日,11755,3364,,
2019年10月25日,11748,3360,,
2019年10月28日,11798,3359,,
2019年10月29日,11833,3367,,
2019年10月30日,11797,3355,,
2019年10月31日,11779,3354,,
2019年11月01日,11660,3317,,
2019年11月05日,11816,3357,,
2019年11月06日,11833,3376,,
2019年11月07日,11775,3371,,
2019年11月08日,11828,3380,,
2019年11月11日,11724,3345,,
2019年11月12日,11720,3345,,
2019年11月13日,11609,3313,,
2019年11月14日,11568,3300,,
2019年11月15日,11555,3301,,
2019年11月18日,11659,3336,,
2019年11月19日,11582,3330,,
2019年11月20日,11599,3360,,
2019年11月21日,11571,3354,,
2019年11月22日,11617,3373,,
2019年11月25日,11612,3375,,
2019年11月26日,11596,3370,,
2019年11月27日,11583,3378,,
2019年11月28日,11586,3383,,
2019年11月29日,11606,3397,,
2019年12月02日,11630,3404,,
2019年12月03日,11598,3407,,
2019年12月04日,11540,3402,,
2019年12月05日,11614,3429,,
2019年12月06日,11639,3439,,
2019年12月09日,11649,3446,,
2019年12月10日,11669,3457,,
2019年12月11日,11677,3470,,
2019年12月12日,11717,3486,,
2019年12月13日,11873,3542,,
2019年12月16日,11860,3547,,
2019年12月17日,11923,3585,,
2019年12月18日,11920,3587,,
2019年12月19日,11935,3594,,
2019年12月20日,11918,3585,,
2019年12月23日,11901,3579,,
2019年12月24日,11928,3590,,
2019年12月25日,11938,3599,,
2019年12月26日,11966,3610,,
2019年12月27日,11995,3619,,
2019年12月30日,12048,3635,,
2020年01月06日,11890,3599,,
2020年01月07日,11944,3623,,
2020年01月08日,11827,3598,,
2020年01月09日,12022,3675,,
2020年01月10日,12060,3696,,
2020年01月14日,12150,3727,,
2020年01月15日,12124,3724,,
2020年01月16日,12128,3743,,
2020年01月17日,12142,3754,,
2020年01月20日,12147,3777,,
2020年01月21日,12134,3781,,
2020年01月22日,12084,3765,,
2020年01月23日,12104,3814,,
2020年01月24日,12075,3806,,
2020年01月27日,12006,3787,,
2020年01月28日,11902,3758,,
2020年01月29日,11930,3773,,
2020年01月30日,11943,3788,,
2020年01月31日,11901,3780,,
2020年02月03日,11820,3759,,
2020年02月04日,11857,3775,,
2020年02月05日,11994,3833,,
2020年02月06日,12062,3858,,
2020年02月07日,12020,3851,,
2020年02月10日,11935,3829,,
2020年02月12日,12002,3854,,
2020年02月13日,12010,3876,,
2020年02月14日,11990,3874,,
2020年02月17日,12021,3890,,
2020年02月18日,11992,3894,,
2020年02月19日,11981,3891,,
2020年02月20日,12140,3968,,
2020年02月21日,12134,3962,,
2020年02月25日,11969,3913,,
2020年02月26日,11885,3888,,
2020年02月27日,11857,3883,,
2020年02月28日,11669,3819,,
2020年03月02日,11376,3713,,
2020年03月03日,11579,3760,,
2020年03月04日,11550,3773,,
2020年03月05日,11633,3812,,
2020年03月06日,11384,3754,,
2020年03月09日,10792,3603,,
2020年03月10日,10752,3612,,
2020年03月11日,10934,3656,,
2020年03月12日,10665,3564,,
2020年03月13日,10338,3456,,
2020年03月16日,10533,3515,,
2020年03月17日,10197,3378,,
2020年03月18日,10200,3194,,
2020年03月19日,9941,3086,,
2020年03月23日,9988,3103,,
2020年03月24日,9847,3059,,
2020年03月25日,10016,3106,,
2020年03月26日,10199,3166,,
2020年03月27日,10244,3188,,
2020年03月30日,10074,3144,,
2020年03月31日,10109,3156,,
2020年04月01日,10038,3141,,
2020年04月02日,9890,3099,,
2020年04月03日,9931,3080,,
2020年04月06日,9891,3058,,
2020年04月07日,10016,3100,,
2020年04月08日,10111,3129,,
2020年04月09日,10222,3165,,
2020年04月10日,10290,3195,,
2020年04月13日,10280,3199,,
2020年04月14日,10234,3185,,
2020年04月15日,10284,3200,,
2020年04月16日,10211,3190,,
2020年04月17日,10278,3217,,
2020年04月20日,10316,3234,,
2020年04月21日,10298,3234,,
2020年04月22日,10228,3222,,
2020年04月23日,10209,3220,,
2020年04月24日,10181,3219,,
2020年04月27日,10150,3211,,
2020年04月28日,10128,3207,,
2020年04月30日,10312,3268,,
2020年05月01日,10370,3292,,
2020年05月07日,10172,3234,,
2020年05月08日,10255,3273,,
2020年05月11日,10402,3331,,
2020年05月12日,10412,3334,,
2020年05月13日,10391,3350,,
2020年05月14日,10351,3343,,
2020年05月15日,10432,3372,,
2020年05月18日,10421,3371,,
2020年05月19日,10564,3410,,
2020年05月20日,10647,3445,,
2020年05月21日,10751,3481,,
2020年05月22日,10845,3525,,
2020年05月25日,10810,3519,,
2020年05月26日,10849,3540,,
2020年05月27日,10924,3564,,
2020年05月28日,10992,3611,,
2020年05月29日,10947,3602,,
2020年06月01日,11014,3626,,
2020年06月02日,11071,3657,,
2020年06月03日,11358,3784,,
2020年06月04日,11435,3817,,
2020年06月05日,11435,3824,,
2020年06月08日,11519,3850,,
2020年06月09日,11395,3807,,
2020年06月10日,11328,3780,,
2020年06月11日,11258,3767,,
2020年06月12日,11057,3704,,
2020年06月15日,11122,3734,,
2020年06月16日,11165,3762,,
2020年06月17日,11089,3749,,
2020年06月18日,11021,3733,,
2020年06月19日,10977,3718,,
2020年06月22日,10999,3729,,
2020年06月23日,11080,3759,,
2020年06月24日,11088,3771,,
2020年06月25日,11032,3769,,
2020年06月26日,11055,3781,,
2020年06月29日,11002,3768,,
2020年06月30日,11069,3815,,
2020年07月01日,11093,3827,,
2020年07月02日,11087,3828,,
2020年07月03日,11112,3852,,
2020年07月06日,11102,3847,0.00,4
2020年07月07日,11098,3845,,
2020年07月08日,11040,3822,,
2020年07月09日,11084,3844,,
2020年07月10日,11069,3844,,
2020年07月13日,11090,3852,,
2020年07月14日,11105,3871,,
2020年07月15日,11153,3887,,
2020年07月16日,11110,3870,,
2020年07月17日,11131,3893,,
2020年07月20日,11137,3894,,
2020年07月21日,11140,3893,,
2020年07月22日,11226,3922,,
2020年07月27日,11159,3898,,
2020年07月28日,11187,3906,,
2020年07月29日,11123,3890,,
2020年07月30日,11130,3893,,
2020年07月31日,11074,3875,,
2020年08月03日,11165,3906,,
2020年08月04日,11150,3901,,
2020年08月05日,11099,3895,,
2020年08月06日,11129,3908,,
2020年08月07日,11104,3902,,
2020年08月11日,11055,3884,,
2020年08月12日,11131,3911,,
2020年08月13日,11143,3928,,
2020年08月14日,11187,3945,,
2020年08月17日,11164,3940,,
2020年08月18日,11013,3902,,
2020年08月19日,10999,3901,,
2020年08月20日,11069,3928,,
2020年08月21日,11033,3918,,
2020年08月24日,10995,3916,,
2020年08月25日,11036,3935,,
2020年08月26日,11104,3958,,
2020年08月27日,11025,3931,,
2020年08月28日,11080,3956,,
2020年08月31日,11088,3961,,
2020年09月01日,11120,3972,,
2020年09月02日,11203,4002,,
2020年09月03日,11161,3996,,
2020年09月04日,11156,3997,,
2020年09月07日,11182,4016,,
2020年09月08日,11154,4007,,
2020年09月09日,11059,3973,,
2020年09月10日,11181,4019,,
2020年09月11日,11142,4009,,
2020年09月14日,11163,4023,,
2020年09月15日,11158,4023,,
2020年09月16日,11136,4023,,
2020年09月17日,11132,4029,,
2020年09月18日,11123,4028,,
2020年09月23日,10930,3954,,
2020年09月24日,10834,3919,,
2020年09月25日,10863,3940,,
2020年09月28日,10785,3909,,
2020年09月29日,10753,3902,,
2020年09月30日,10827,3942,,
2020年10月01日,10865,3958,,
2020年10月02日,10913,3982,,
2020年10月05日,10897,3987,,
2020年10月06日,10975,4019,,
2020年10月07日,10920,4001,,
2020年10月08日,10985,4027,,
2020年10月09日,11001,4037,,
2020年10月12日,11042,4057,,
2020年10月13日,10991,4040,,
2020年10月14日,10980,4036,,
2020年10月15日,10950,4033,,
2020年10月16日,10912,4019,,
2020年10月19日,10962,4053,,
2020年10月20日,10996,4071,,
2020年10月21日,11022,4084,,
2020年10月22日,10961,4063,,
2020年10月23日,10966,4066,,
2020年10月26日,10975,4073,,
2020年10月27日,10966,4071,,
2020年10月28日,10892,4052,,
2020年10月29日,10812,4026,,
2020年10月30日,10800,4024,,
2020年11月02日,10811,4030,,
2020年11月04日,10877,4057,,
2020年11月05日,10932,4094,,
2020年11月06日,11016,4132,,
2020年11月09日,11114,4173,,
2020年11月10日,11374,4275,,
2020年11月11日,11349,4267,,
2020年11月12日,11366,4276,,
2020年11月13日,11290,4248,,
2020年11月16日,11292,4241,,
2020年11月17日,11315,4261,,
2020年11月18日,11291,4256,,
2020年11月19日,11271,4251,,
2020年11月20日,11304,4263,,
2020年11月24日,11335,4269,,
2020年11月25日,11380,4279,,
2020年11月26日,11402,4291,,
2020年11月27日,11375,4290,,
2020年11月30日,11352,4281,,
2020年12月01日,11334,4280,,
2020年12月02日,11472,4337,,
2020年12月03日,11491,4364,,
2020年12月04日,11479,4367,,
2020年12月07日,11543,4398,,
2020年12月08日,11539,4399,,
2020年12月09日,11602,4425,,
2020年12月10日,11599,4426,,
2020年12月11日,11614,4432,,
2020年12月14日,11619,4442,,
2020年12月15日,11624,4444,,
2020年12月16日,11630,4454,,
2020年12月17日,11635,4486,,
2020年12月18日,11678,4505,,
2020年12月21日,11655,4501,,
2020年12月22日,11607,4489,,
2020年12月23日,11590,4506,,
2020年12月24日,11611,4519,,
2020年12月25日,11592,4502,,
2020年12月28日,11622,4520,,
2020年12月29日,11663,4536,,
2020年12月30日,11655,4533,,
2021年01月04日,11644,4551,,
2021年01月05日,11660,4564,,
2021年01月06日,11600,4567,,
2021年01月07日,11645,4571,,
2021年01月08日,11617,4567,,
2021年01月12日,11533,4539,,
2021年01月13日,11588,4573,,
2021年01月14日,11591,4585,,
2021年01月15日,11634,4610,,
2021年01月18日,11554,4570,,
2021年01月19日,11569,4582,,
2021年01月20日,11607,4598,,
2021年01月21日,11610,4635,,
2021年01月22日,11588,4633,,
2021年01月25日,11530,4616,,
2021年01月26日,11498,4607,,
2021年01月27日,11525,4627,,
2021年01月28日,11530,4639,,
2021年01月29日,11582,4658,,
2021年02月01日,11624,4674,,
2021年02月02日,11660,4696,,
2021年02月03日,11727,4747,,
2021年02月04日,11726,4754,,
2021年02月05日,11725,4761,,
2021年02月08日,11800,4754,,
2021年02月09日,11746,4735,,
2021年02月10日,11717,4728,,
2021年02月12日,11771,4758,,
2021年02月15日,11820,4777,,
2021年02月16日,11877,4809,,
2021年02月17日,11859,4802,,
2021年02月18日,11779,4796,,
2021年02月19日,11758,4789,,
2021年02月22日,11685,4763,,
2021年02月24日,11640,4744,,
2021年02月25日,11731,4789,,
2021年02月26日,11561,4725,,
2021年03月01日,11544,4724,,
2021年03月02日,11589,4752,,
2021年03月03日,11578,4769,,
2021年03月04日,11549,4761,,
2021年03月05日,11573,4777,,
2021年03月08日,11561,4775,,
2021年03月09日,11474,4747,,
2021年03月10日,11506,4760,,
2021年03月11日,11585,4798,,
2021年03月12日,11690,4850,,
2021年03月15日,11671,4845,,
2021年03月16日,11688,4859,,
2021年03月17日,11661,4848,,
2021年03月18日,11686,4858,,
2021年03月19日,11628,4852,,
2021年03月22日,11587,4840,,
2021年03月23日,11591,4841,,
2021年03月24日,11474,4791,,
2021年03月25日,11436,4780,,
2021年03月26日,11464,4793,,
2021年03月29日,11491,4811,,
2021年03月30日,11488,4823,,
2021年03月31日,11531,4850,,
2021年04月01日,11642,4896,,
2021年04月02日,11643,4901,,
2021年04月05日,11627,4910,,
2021年04月06日,11638,4914,,
2021年04月07日,11652,4920,,
2021年04月08日,11651,4926,,
2021年04月09日,11685,4938,,
2021年04月12日,11668,4930,,
2021年04月13日,11619,4912,,
2021年04月14日,11584,4906,,
2021年04月15日,11646,4932,,
2021年04月16日,11673,4962,,
2021年04月19日,11694,4983,,
2021年04月20日,11675,4977,,
2021年04月21日,11630,4956,,
2021年04月22日,11636,4965,,
2021年04月23日,11623,4959,,
2021年04月26日,11649,4972,,
2021年04月27日,11655,4980,,
2021年04月28日,11709,5009,,
2021年04月30日,11760,5036,,
2021年05月06日,11731,5030,,
2021年05月07日,11822,5083,,
2021年05月10日,11877,5122,,
2021年05月11日,11897,5139,,
2021年05月12日,11867,5134,,
2021年05月13日,11874,5109,,
2021年05月14日,11899,5121,,
2021年05月17日,11898,5126,,
2021年05月18日,11892,5125,,
2021年05月19日,11895,5145,,
2021年05月20日,11871,5139,,
2021年05月21日,11857,5155,,
2021年05月24日,11847,5158,,
2021年05月25日,11859,5168,,
2021年05月26日,11873,5179,,
2021年05月27日,11923,5205,,
2021年05月28日,12028,5277,,
2021年05月31日,12028,5285,,
2021年06月01日,12025,5288,,
2021年06月02日,12064,5305,,
2021年06月03日,12118,5356,,
2021年06月04日,12117,5360,,
2021年06月07日,12130,5369,,
2021年06月08日,12121,5373,,
2021年06月09日,12133,5383,,
2021年06月10日,12146,5397,,
2021年06月11日,12160,5411,,
2021年06月14日,12156,5426,,
2021年06月15日,12170,5443,,
2021年06月16日,12143,5459,,
2021年06月17日,12114,5458,,
2021年06月18日,11988,5411,,
2021年06月21日,11909,5379,,
2021年06月22日,11932,5399,,
2021年06月23日,12000,5435,,
2021年06月24日,12044,5459,,
2021年06月25日,12073,5484,,
2021年06月28日,12056,5481,,
2021年06月29日,12055,5488,,
2021年06月30日,12019,5502,,
2021年07月01日,12061,5527,,
2021年07月02日,12058,5533,,
2021年07月05日,12040,5577,0.00,5
2021年07月06日,11998,5564,,
2021年07月07日,11893,5516,,
2021年07月08日,11872,5516,,
2021年07月09日,11780,5483,,
2021年07月12日,11841,5511,,
2021年07月13日,11885,5535,,
2021年07月14日,11850,5536,,
2021年07月15日,11837,5536,,
2021年07月16日,11810,5527,,
2021年07月19日,11823,5567,,
2021年07月20日,11735,5532,,
2021年07月21日,11785,5564,,
2021年07月26日,11857,5616,,
2021年07月27日,11829,5605,,
2021年07月28日,11786,5609,,
2021年07月29日,11812,5630,,
2021年07月30日,11848,5653,,
2021年08月02日,11828,5649,,
2021年08月03日,11828,5651,,
2021年08月04日,11796,5658,,
2021年08月05日,11840,5685,,
2021年08月06日,11832,5687,,
2021年08月10日,11775,5666,,
2021年08月11日,11807,5680,,
2021年08月12日,11796,5684,,
2021年08月13日,11810,5699,,
2021年08月16日,11741,5671,,
2021年08月17日,11698,5673,,
2021年08月18日,11707,5693,,
2021年08月19日,11711,5702,,
2021年08月20日,11662,5682,,
2021年08月23日,11652,5683,,
2021年08月24日,11672,5698,,
2021年08月25日,11770,5751,,
2021年08月26日,11814,5779,,
2021年08月27日,11777,5777,,
2021年08月30日,11826,5815,,
2021年08月31日,11896,5851,,
2021年09月01日,11982,5894,,
2021年09月02日,11969,5900,,
2021年09月03日,11951,5910,,
2021年09月06日,11955,5911,,
2021年09月07日,11952,5917,,
2021年09月08日,11968,5925,,
2021年09月09日,11917,5909,,
2021年09月10日,11883,5897,,
2021年09月13日,11909,5915,,
2021年09月14日,11915,5926,,
2021年09月15日,11836,5899,,
2021年09月16日,11839,5925,,
2021年09月17日,11801,5914,,
2021年09月21日,11678,5862,,
2021年09月22日,11650,5868,,
2021年09月24日,11799,5952,,
2021年09月27日,11777,5946,,
2021年09月28日,11760,5943,,
2021年09月29日,11762,5959,,
2021年09月30日,11753,5955,,
2021年10月01日,11704,5935,,
2021年10月04日,11718,5949,,
2021年10月05日,11650,5938,,
2021年10月06日,11706,5970,,
2021年10月07日,11679,5960,,
2021年10月08日,11691,5970,,
2021年10月11日,11756,6009,,
2021年10月12日,11837,6058,,
2021年10月13日,11851,6065,,
2021年10月14日,11909,6111,,
2021年10月15日,11970,6150,,
2021年10月18日,12055,6215,,
2021年10月19日,11982,6186,,
2021年10月20日,12065,6236,,
2021年10月21日,12034,6216,,
2021年10月22日,11902,6152,,
2021年10月25日,11873,6135,,
2021年10月26日,11907,6158,,
2021年10月27日,11924,6178,,
2021年10月28日,11873,6168,,
2021年10月29日,11819,6143,,
2021年11月01日,11823,6145,,
2021年11月02日,11761,6119,,
2021年11月04日,11827,6179,,
2021年11月05日,11750,6143,,
2021年11月08日,11831,6186,,
2021年11月09日,11839,6198,,
2021年11月10日,11834,6207,,
2021年11月11日,11850,6226,,
2021年11月12日,11899,6257,,
2021年11月15日,11824,6217,,
2021年11月16日,11852,6252,,
2021年11月17日,11831,6269,,
2021年11月18日,11753,6233,,
2021年11月19日,11721,6211,,
2021年11月22日,11636,6172,,
2021年11月24日,11609,6177,,
2021年11月25日,11600,6184,,
2021年11月26日,11525,6154,,
2021年11月29日,11407,6091,,
2021年11月30日,11432,6134,,
2021年12月01日,11450,6147,,
2021年12月02日,11398,6122,,
2021年12月03日,11431,6159,,
2021年12月06日,11412,6152,,
2021年12月07日,11474,6187,,
2021年12月08日,11545,6234,,
2021年12月09日,11631,6283,,
2021年12月10日,11551,6243,,
2021年12月13日,11582,6261,,
2021年12月14日,11563,6262,,
2021年12月15日,11527,6244,,
2021年12月16日,11560,6270,,
2021年12月17日,11550,6293,,
2021年12月20日,11511,6276,,
2021年12月21日,11532,6285,,
2021年12月22日,11595,6329,,
2021年12月23日,11655,6372,,
2021年12月24日,11712,6406,,
2021年12月27日,11722,6416,,
2021年12月28日,11779,6447,,
2021年12月29日,11748,6430,,
2021年12月30日,11745,6429,,
2022年01月04日,11781,6476,,
2022年01月05日,11809,6495,,
2022年01月06日,11776,6487,,
2022年01月07日,11758,6483,,
2022年01月11日,11715,6463,,
2022年01月12日,11764,6493,,
2022年01月13日,11781,6503,,
2022年01月14日,11691,6460,,
2022年01月17日,11712,6468,,
2022年01月18日,11744,6488,,
2022年01月19日,11672,6449,,
2022年01月20日,11716,6513,,
2022年01月21日,11683,6497,,
2022年01月24日,11722,6522,,
2022年01月25日,11657,6489,,
2022年01月26日,11655,6492,,
2022年01月27日,11685,6575,,
2022年01月28日,11755,6638,,
2022年01月31日,11726,6640,,
2022年02月01日,11771,6676,,
2022年02月02日,11798,6704,,
2022年02月03日,11796,6720,,
2022年02月04日,11882,6771,,
2022年02月07日,11885,6787,,
2022年02月08日,11917,6805,,
2022年02月09日,11960,6847,,
2022年02月10日,12007,6873,,
2022年02月14日,11913,6818,,
2022年02月15日,11905,6827,,
2022年02月16日,12014,6969,,
2022年02月17日,12039,6972,,
2022年02月18日,11981,6932,,
2022年02月21日,11967,6911,,
2022年02月22日,11861,6840,,
2022年02月24日,11872,6847,,
2022年02月25日,11677,6720,,
2022年02月28日,11616,6680,,
2022年03月01日,11481,6601,,
2022年03月02日,11301,6462,,
2022年03月03日,11170,6399,,
2022年03月04日,11089,6337,,
2022年03月07日,10881,6228,,
2022年03月08日,10786,6172,,
2022年03月09日,10840,6205,,
2022年03月10日,10979,6281,,
2022年03月11日,10968,6274,,
2022年03月14日,11065,6331,,
2022年03月15日,11101,6344,,
2022年03月16日,11132,6371,,
2022年03月17日,11325,6490,,
2022年03月18日,11313,6486,,
2022年03月22日,11388,6553,,
2022年03月23日,11516,6635,,
2022年03月24日,11504,6637,,
2022年03月25日,11602,6692,,
2022年03月28日,11642,6719,,
2022年03月29日,11804,6809,,
2022年03月30日,11772,6808,,
2022年03月31日,11828,6845,,
2022年04月01日,11792,6824,,
2022年04月04日,11850,6860,,
2022年04月05日,11888,6901,,
2022年04月06日,11924,6929,,
2022年04月07日,11846,6887,,
2022年04月08日,11823,6873,,
2022年04月11日,11876,6901,,
2022年04月12日,11938,6937,,
2022年04月13日,11936,6962,,
2022年04月14日,11977,6988,,
2022年04月15日,11992,6998,,
2022年04月18日,12032,7038,,
2022年04月19日,12101,7078,,
2022年04月20日,12222,7149,,
2022年04月21日,12108,7097,,
2022年04月22日,12073,7080,,
2022年04月25日,11977,7021,,
2022年04月26日,11791,6907,,
2022年04月27日,11691,6856,,
2022年04月28日,11802,6935,,
2022年05月02日,11853,6971,,
2022年05月06日,11840,6966,,
2022年05月09日,11763,6920,,
2022年05月10日,11582,6817,,
2022年05月11日,11615,6838,,
2022年05月12日,11581,6826,,
2022年05月13日,11500,6780,,
2022年05月16日,11564,6820,,
2022年05月17日,11366,6704,,
2022年05月18日,11463,6772,,
2022年05月19日,11334,6702,,
2022年05月20日,11380,6731,,
2022年05月23日,11480,6816,,
2022年05月24日,11553,6865,,
2022年05月25日,11504,6837,,
2022年05月26日,11572,6883,,
2022年05月27日,11540,6871,,
2022年05月30日,11612,7013,,
2022年05月31日,11736,7113,,
2022年06月01日,11794,7148,,
2022年06月02日,11838,7187,,
2022年06月03日,11901,7256,,
2022年06月06日,11973,7300,,
2022年06月07日,12074,7362,,
2022年06月08日,12076,7369,,
2022年06月09日,12186,7436,,
2022年06月10日,12102,7380,,
2022年06月13日,11987,7307,,
2022年06月14日,11727,7152,,
2022年06月15日,11751,7163,,
2022年06月16日,11806,7216,,
2022年06月17日,11661,7141,,
2022年06月20日,11826,7263,,
2022年06月21日,11788,7241,,
2022年06月22日,11936,7332,,
2022年06月23日,11937,7343,,
2022年06月24日,11869,7303,,
2022年06月27日,11841,7288,,
2022年06月28日,11898,7328,,
2022年06月29日,11898,7539,,
2022年06月30日,11940,7573,,
2022年07月01日,11871,7530,,
2022年07月04日,11759,7464,,
2022年07月05日,11855,7534,0.00,6
2022年07月06日,11678,7422,,
2022年07月07日,11622,7398,,
2022年07月08日,11679,7449,,
2022年07月11日,11713,7477,,
2022年07月12日,11634,7451,,
2022年07月13日,11575,7421,,
2022年07月14日,11667,7490,,
2022年07月15日,11672,7507,,
2022年07月19日,11717,7561,,
2022年07月20日,11749,7588,,
2022年07月21日,11746,7564,,
2022年07月22日,11656,7513,,
2022年07月25日,11652,7523,,
2022年07月26日,11728,7571,,
2022年07月27日,11746,7594,,
2022年07月28日,11742,7611,,
2022年07月29日,11701,7589,,
2022年08月01日,11625,7542,,
2022年08月02日,11507,7466,,
2022年08月03日,11672,7563,,
2022年08月04日,11693,7559,,
2022年08月05日,11733,7587,,
2022年08月08日,11913,7700,,
2022年08月09日,11950,7715,,
2022年08月10日,11979,7726,,
2022年08月12日,11995,7732,,
2022年08月15日,12018,7753,,
2022年08月16日,11943,7706,,
2022年08月17日,12016,7778,,
2022年08月18日,12007,7766,,
2022年08月19日,12003,7768,,
2022年08月22日,12011,7769,,
2022年08月23日,11963,7739,,
2022年08月24日,11962,7735,,
2022年08月25日,11982,7744,,
2022年08月26日,12002,7761,,
2022年08月29日,12102,7830,,
2022年08月30日,12126,7858,,
2022年08月31日,12111,7848,,
2022年09月01日,12132,7867,,
2022年09月02日,12136,7873,,
2022年09月05日,12198,7930,,
2022年09月06日,12223,7951,,
2022年09月07日,12333,8022,,
2022年09月08日,12522,8148,,
2022年09月09日,12517,8144,,
2022年09月12日,12482,8134,,
2022年09月13日,12537,8164,,
2022年09月14日,12555,8188,,
2022年09月15日,12425,8104,,
2022年09月16日,12338,8064,,
2022年09月20日,12372,8098,,
2022年09月21日,12343,8100,,
2022年09月22日,12337,8120,,
2022年09月26日,12106,7974,,
2022年09月27日,12001,7908,,
2022年09月28日,11971,7907,,
2022年09月29日,11959,7892,,
2022年09月30日,11982,7910,,
2022年10月03日,11976,7903,,
2022年10月04日,12114,7993,,
2022年10月05日,12173,8092,,
2022年10月06日,12187,8108,,
2022年10月07日,12111,8083,,
2022年10月11日,12104,8081,,
2022年10月12日,12056,8070,,
2022年10月13日,12077,8134,,
2022年10月14日,12138,8179,,
2022年10月17日,12176,8212,,
2022年10月18日,12253,8296,,
2022年10月19日,12296,8348,,
2022年10月20日,12241,8313,,
2022年10月21日,12251,8328,,
2022年10月24日,12184,8286,,
2022年10月25日,12140,8264,,
2022年10月26日,12151,8272,,
2022年10月27日,12108,8246,,
2022年10月28日,12133,8286,,
2022年10月31日,12243,8362,,
2022年11月01日,12253,8368,,
2022年11月02日,12196,8340,,
2022年11月04日,12204,8372,,
2022年11月07日,12235,8391,,
2022年11月08日,12280,8435,,
2022年11月09日,12262,8447,,
2022年11月10日,12322,8497,,
2022年11月11日,12154,8390,,
2022年11月14日,12070,8339,,
2022年11月15日,12175,8411,,
2022年11月16日,12125,8382,,
2022年11月17日,12102,8393,,
2022年11月18日,12106,8406,,
2022年11月21日,12101,8406,,
2022年11月22日,12247,8511,,
2022年11月24日,12127,8430,,
2022年11月25日,12169,8469,,
2022年11月28日,12129,8441,,
2022年11月29日,12131,8449,,
2022年11月30日,12215,8532,,
2022年12月01日,12138,8481,,
2022年12月02日,12017,8403,,
2022年12月05日,12036,8417,,
2022年12月06日,12108,8470,,
2022年12月07日,12161,8508,,
2022年12月08日,12166,8515,,
2022年12月09日,12216,8554,,
2022年12月12日,12157,8514,,
2022年12月13日,12178,8534,,
2022年12月14日,12092,8483,,
2022年12月15日,12128,8511,,
2022年12月16日,12271,8614,,
2022年12月19日,12126,8549,,
2022年12月20日,12006,8453,,
2022年12月21日,11795,8311,,
2022年12月22日,11856,8363,,
2022年12月23日,11922,8422,,
2022年12月26日,11921,8418,,
2022年12月27日,11995,8476,,
2022年12月28日,11988,8471,,
2022年12月29日,12025,8497,,
2022年12月30日,11907,8457,,
2023年01月04日,11753,8351,,
2023年01月05日,11926,8478,,
2023年01月06日,12063,8618,,
2023年01月10日,12139,8677,,
2023年01月11日,12196,8720,,
2023年01月12日,12249,8769,,
2023年01月13日,12121,8685,,
2023年01月16日,12030,8625,,
2023年01月17日,12036,8632,,
2023年01月18日,12247,8784,,
2023年01月19日,12000,8636,,
2023年01月20日,12037,8665,,
2023年01月23日,12137,8739,,
2023年01月24日,12223,8824,,
2023年01月25日,12273,8871,,
2023年01月26日,12227,8849,,
2023年01月27日,12264,8877,,
2023年01月30日,12270,8905,,
2023年01月31日,12240,8885,,
2023年02月01日,12190,8833,,
2023年02月02日,12198,8847,,
2023年02月03日,12230,8854,,
2023年02月06日,12402,8931,,
2023年02月07日,12313,8867,,
2023年02月08日,12172,8764,,
2023年02月09日,12223,8805,,
2023年02月10日,12233,8818,,
2023年02月13日,12172,8780,,
2023年02月14日,12233,8835,,
2023年02月15日,12278,8864,,
2023年02月16日,12306,8918,,
2023年02月17日,12278,8914,,
2023年02月20日,12315,8948,,
2023年02月21日,12289,8925,,
2023年02月22日,12258,8903,,
2023年02月24日,12249,8937,,
2023年02月27日,12358,9022,,
2023年02月28日,12395,9058,,
2023年03月01日,12371,9066,,
2023年03月02日,12473,9156,,
2023年03月03日,12451,9167,,
2023年03月06日,12427,9156,,
2023年03月07日,12479,9201,,
2023年03月08日,12473,9195,,
2023年03月09日,12471,9191,,
2023年03月10日,12377,9140,,
2023年03月13日,12314,9192,,
2023年03月14日,12221,9138,,
2023年03月15日,12365,9247,,
2023年03月16日,12118,9069,,
2023年03月17日,12194,9132,,
2023年03月20日,12161,9134,,
2023年03月22日,12201,9167,,
2023年03月23日,12151,9034,,
2023年03月24日,12133,9027,,
2023年03月27日,12158,9063,,
2023年03月28日,12198,9099,,
2023年03月29日,12277,9192,,
2023年03月30日,12416,9307,,
2023年03月31日,12578,9431,,
