年月日,基準価額(円),純資産総額（百万円）,分配金,決算期
2016年09月08日,10000,10,,
2016年09月09日,10054,10,,
2016年09月12日,9931,20,,
2016年09月13日,9798,25,,
2016年09月14日,9718,31,,
2016年09月15日,9686,31,,
2016年09月16日,9711,39,,
2016年09月20日,9782,41,,
2016年09月21日,9804,41,,
2016年09月23日,10002,44,,
2016年09月26日,9877,44,,
2016年09月27日,9709,44,,
2016年09月28日,9769,51,,
2016年09月29日,9917,59,,
2016年09月30日,9832,60,,
2016年10月03日,9793,61,,
2016年10月04日,10028,65,,
2016年10月05日,10065,69,,
2016年10月06日,10245,71,,
2016年10月07日,10317,73,,
2016年10月11日,10442,79,,
2016年10月12日,10294,78,,
2016年10月13日,10357,79,,
2016年10月14日,10217,78,,
2016年10月17日,10306,85,,
2016年10月18日,10309,88,,
2016年10月19日,10496,95,,
2016年10月20日,10520,96,,
2016年10月21日,10620,97,,
2016年10月24日,10613,99,,
2016年10月25日,10774,102,,
2016年10月26日,10784,112,,
2016年10月27日,10739,115,,
2016年10月28日,10745,120,,
2016年10月31日,10651,129,,
2016年11月01日,10693,131,,
2016年11月02日,10542,129,,
2016年11月04日,10202,128,,
2016年11月07日,10252,129,,
2016年11月08日,10604,135,,
2016年11月09日,10496,140,,
2016年11月10日,10610,142,,
2016年11月11日,10481,142,,
2016年11月14日,10202,139,,
2016年11月15日,10178,138,,
2016年11月16日,10329,140,,
2016年11月17日,10339,141,,
2016年11月18日,10429,143,,
2016年11月21日,10492,214,,
2016年11月22日,10642,224,,
2016年11月24日,10964,236,,
2016年11月25日,11024,237,,
2016年11月28日,10925,235,,
2016年11月29日,11035,246,,
2016年11月30日,10903,248,,
2016年12月01日,11209,247,,
2016年12月02日,11026,248,,
2016年12月05日,11061,199,,
2016年12月06日,11099,218,,
2016年12月07日,11268,229,,
2016年12月08日,11320,232,,
2016年12月09日,11451,241,,
2016年12月12日,11540,251,,
2016年12月13日,11507,257,,
2016年12月14日,11542,265,,
2016年12月15日,11579,267,,
2016年12月16日,11559,271,,
2016年12月19日,11496,623,,
2016年12月20日,11344,618,,
2016年12月21日,11454,275,,
2016年12月22日,11451,283,,
2016年12月26日,11321,275,,
2016年12月27日,11385,284,,
2016年12月28日,11436,286,,
2016年12月29日,11552,289,,
2016年12月30日,11569,277,,
2017年01月04日,11905,285,,
2017年01月05日,11804,283,,
2017年01月06日,11868,287,,
2017年01月10日,11820,288,,
2017年01月11日,11925,295,,
2017年01月12日,11919,301,,
2017年01月13日,12043,306,,
2017年01月16日,11947,307,,
2017年01月17日,11865,311,,
2017年01月18日,11804,309,,
2017年01月19日,12010,331,,
2017年01月20日,12002,333,,
2017年01月23日,11934,332,,
2017年01月24日,11968,337,,
2017年01月25日,12120,350,,
2017年01月26日,12099,352,,
2017年01月27日,12262,357,,
2017年01月30日,12305,358,,
2017年01月31日,12055,359,,
2017年02月01日,11968,356,,
2017年02月02日,12036,358,,
2017年02月03日,12007,385,,
2017年02月06日,11982,397,,
2017年02月07日,11889,399,,
2017年02月08日,11925,413,,
2017年02月09日,11966,420,,
2017年02月10日,12171,430,,
2017年02月13日,12360,442,,
2017年02月14日,12473,449,,
2017年02月15日,12575,465,,
2017年02月16日,12657,470,,
2017年02月17日,12563,478,,
2017年02月20日,12402,474,,
2017年02月21日,12579,489,,
2017年02月22日,12644,491,,
2017年02月23日,12632,535,,
2017年02月24日,12520,538,,
2017年02月27日,12283,539,,
2017年02月28日,12271,538,,
2017年03月01日,12281,539,,
2017年03月02日,12476,547,,
2017年03月03日,12315,554,,
2017年03月06日,12338,560,,
2017年03月07日,12320,565,,
2017年03月08日,12323,576,,
2017年03月09日,12202,575,,
2017年03月10日,12089,577,,
2017年03月13日,12120,578,,
2017年03月14日,12277,599,,
2017年03月15日,12219,596,,
2017年03月16日,12294,593,,
2017年03月17日,12429,603,,
2017年03月21日,12384,604,,
2017年03月22日,12248,602,,
2017年03月23日,12183,609,,
2017年03月24日,12138,610,,
2017年03月27日,12085,609,,
2017年03月28日,12044,611,,
2017年03月29日,12111,620,,
2017年03月30日,12193,628,,
2017年03月31日,12185,637,,
2017年04月03日,12031,630,,
2017年04月04日,12000,632,,
2017年04月05日,12058,643,,
2017年04月06日,12070,643,,
2017年04月07日,12035,645,,
2017年04月10日,12073,649,,
2017年04月11日,11971,645,,
2017年04月12日,11813,644,,
2017年04月13日,11770,629,,
2017年04月14日,11787,630,,
2017年04月17日,11676,624,,
2017年04月18日,11831,632,,
2017年04月19日,11659,623,,
2017年04月20日,11616,630,,
2017年04月21日,11707,637,,
2017年04月24日,11818,648,,
2017年04月25日,11922,654,,
2017年04月26日,12194,701,,
2017年04月27日,12165,704,,
2017年04月28日,12091,705,,
2017年05月01日,12142,711,,
2017年05月02日,12183,720,,
2017年05月08日,12119,716,,
2017年05月09日,12167,737,,
2017年05月10日,12294,758,,
2017年05月11日,12469,765,,
2017年05月12日,12458,769,,
2017年05月15日,12442,765,,
2017年05月16日,12632,778,,
2017年05月17日,12526,783,,
2017年05月18日,12215,765,,
2017年05月19日,11842,748,,
2017年05月22日,12034,763,,
2017年05月23日,12019,769,,
2017年05月24日,12121,784,,
2017年05月25日,12168,789,,
2017年05月26日,12245,799,,
2017年05月29日,12216,801,,
2017年05月30日,12176,802,,
2017年05月31日,12150,800,,
2017年06月01日,12059,794,,
2017年06月02日,12133,806,,
2017年06月05日,12075,807,,
2017年06月06日,12068,811,,
2017年06月07日,11986,805,,
2017年06月08日,12022,807,,
2017年06月09日,12019,811,,
2017年06月12日,11983,811,,
2017年06月13日,11889,806,,
2017年06月14日,11919,818,,
2017年06月15日,11908,820,,
2017年06月16日,11909,822,,
2017年06月19日,11920,822,,
2017年06月20日,12074,834,,
2017年06月21日,11933,829,,
2017年06月22日,11889,832,,
2017年06月23日,11943,835,,
2017年06月26日,11981,840,,
2017年06月27日,12185,850,,
2017年06月28日,12161,849,,
2017年06月29日,12185,864,,
2017年06月30日,12145,864,,
2017年07月03日,12169,867,,
2017年07月04日,12337,883,,
2017年07月05日,12286,887,0.00,1
2017年07月06日,12298,888,,
2017年07月07日,12274,888,,
2017年07月10日,12324,892,,
2017年07月11日,12398,893,,
2017年07月12日,12461,904,,
2017年07月13日,12608,913,,
2017年07月14日,12730,919,,
2017年07月18日,12744,916,,
2017年07月19日,12688,913,,
2017年07月20日,12767,929,,
2017年07月21日,12782,930,,
2017年07月24日,12610,926,,
2017年07月25日,12670,983,,
2017年07月26日,12733,993,,
2017年07月27日,12706,994,,
2017年07月28日,12751,999,,
2017年07月31日,12617,991,,
2017年08月01日,12648,996,,
2017年08月02日,12705,1003,,
2017年08月03日,12801,1019,,
2017年08月04日,12690,1014,,
2017年08月07日,12793,1021,,
2017年08月08日,12892,980,,
2017年08月09日,12820,986,,
2017年08月10日,12749,982,,
2017年08月14日,12411,955,,
2017年08月15日,12596,978,,
2017年08月16日,12657,978,,
2017年08月17日,12665,979,,
2017年08月18日,12550,976,,
2017年08月21日,12531,974,,
2017年08月22日,12548,976,,
2017年08月23日,12738,996,,
2017年08月24日,12718,989,,
2017年08月25日,12876,1001,,
2017年08月28日,12903,1003,,
2017年08月29日,12882,1001,,
2017年08月30日,13008,1011,,
2017年08月31日,13125,1024,,
2017年09月01日,13112,1024,,
2017年09月04日,13136,1029,,
2017年09月05日,13056,1027,,
2017年09月06日,12951,1018,,
2017年09月07日,13046,1030,,
2017年09月08日,13011,1033,,
2017年09月11日,12993,1032,,
2017年09月12日,13202,1054,,
2017年09月13日,13276,1066,,
2017年09月14日,13268,1071,,
2017年09月15日,13216,1068,,
2017年09月19日,13436,1083,,
2017年09月20日,13408,1087,,
2017年09月21日,13522,1102,,
2017年09月22日,13473,1104,,
2017年09月25日,13430,1101,,
2017年09月26日,13137,1079,,
2017年09月27日,13212,1099,,
2017年09月28日,13199,1100,,
2017年09月29日,13122,1100,,
2017年10月02日,13232,1113,,
2017年10月03日,13251,1118,,
2017年10月04日,13428,1132,,
2017年10月05日,13515,1160,,
2017年10月06日,13524,1162,,
2017年10月10日,13423,1153,,
2017年10月11日,13470,1158,,
2017年10月12日,13551,1185,,
2017年10月13日,13579,1191,,
2017年10月16日,13642,1197,,
2017年10月17日,13698,1204,,
2017年10月18日,13648,1206,,
2017年10月19日,13736,1218,,
2017年10月20日,13604,1211,,
2017年10月23日,13769,1226,,
2017年10月24日,13628,1213,,
2017年10月25日,13693,1231,,
2017年10月26日,13670,1231,,
2017年10月27日,13632,1238,,
2017年10月30日,13675,1247,,
2017年10月31日,13574,1240,,
2017年11月01日,13635,1250,,
2017年11月02日,13720,1267,,
2017年11月06日,13687,1266,,
2017年11月07日,13701,1268,,
2017年11月08日,13690,1270,,
2017年11月09日,13770,1291,,
2017年11月10日,13667,1293,,
2017年11月13日,13608,1291,,
2017年11月14日,13552,1289,,
2017年11月15日,13416,1280,,
2017年11月16日,13237,1260,,
2017年11月17日,13377,1273,,
2017年11月20日,13412,1273,,
2017年11月21日,13423,1280,,
2017年11月22日,13575,1294,,
2017年11月24日,13550,1304,,
2017年11月27日,13570,1306,,
2017年11月28日,13436,1296,,
2017年11月29日,13518,1307,,
2017年11月30日,13496,1306,,
2017年12月01日,13348,1290,,
2017年12月04日,13395,1297,,
2017年12月05日,13457,1307,,
2017年12月06日,13419,1291,,
2017年12月07日,13263,1277,,
2017年12月08日,13266,1278,,
2017年12月11日,13399,1295,,
2017年12月12日,13452,1301,,
2017年12月13日,13418,1302,,
2017年12月14日,13417,1306,,
2017年12月15日,13412,1308,,
2017年12月18日,13445,1311,,
2017年12月19日,13564,1325,,
2017年12月20日,13621,1333,,
2017年12月21日,13655,1344,,
2017年12月22日,13758,1359,,
2017年12月25日,13786,1361,,
2017年12月26日,13816,1365,,
2017年12月27日,13837,1367,,
2017年12月28日,13928,1376,,
2017年12月29日,13946,1386,,
2018年01月04日,14281,1419,,
2018年01月05日,14428,1434,,
2018年01月09日,14625,1455,,
2018年01月10日,14510,1449,,
2018年01月11日,14371,1448,,
2018年01月12日,14412,1458,,
2018年01月15日,14506,1472,,
2018年01月16日,14521,1476,,
2018年01月17日,14556,1479,,
2018年01月18日,14797,1514,,
2018年01月19日,14879,1525,,
2018年01月22日,14890,1525,,
2018年01月23日,15036,1541,,
2018年01月24日,15043,1553,,
2018年01月25日,15158,1567,,
2018年01月26日,15169,1572,,
2018年01月29日,15183,1573,,
2018年01月30日,15124,1567,,
2018年01月31日,14880,1558,,
2018年02月01日,15033,1576,,
2018年02月02日,15066,1582,,
2018年02月05日,14931,1575,,
2018年02月06日,14534,1534,,
2018年02月07日,14350,1510,,
2018年02月08日,14209,1485,,
2018年02月09日,13917,1461,,
2018年02月13日,13814,1451,,
2018年02月14日,13791,1448,,
2018年02月15日,13947,1464,,
2018年02月16日,14123,1493,,
2018年02月19日,14101,1497,,
2018年02月20日,14148,1503,,
2018年02月21日,14147,1502,,
2018年02月22日,14313,1541,,
2018年02月23日,14234,1535,,
2018年02月26日,14385,1555,,
2018年02月27日,14481,1567,,
2018年02月28日,14386,1567,,
2018年03月01日,14101,1536,,
2018年03月02日,14004,1532,,
2018年03月05日,13819,1529,,
2018年03月06日,13876,1536,,
2018年03月07日,13927,1546,,
2018年03月08日,13883,1544,,
2018年03月09日,14000,1561,,
2018年03月12日,14169,1581,,
2018年03月13日,14244,1590,,
2018年03月14日,14262,1600,,
2018年03月15日,14091,1583,,
2018年03月16日,14045,1579,,
2018年03月19日,13949,1574,,
2018年03月20日,13898,1569,,
2018年03月22日,13933,1576,,
2018年03月23日,13702,1555,,
2018年03月26日,13551,1537,,
2018年03月27日,13717,1557,,
2018年03月28日,13735,1568,,
2018年03月29日,13721,1565,,
2018年03月30日,13733,1569,,
2018年04月02日,13756,1572,,
2018年04月03日,13658,1561,,
2018年04月04日,13746,1571,,
2018年04月05日,13649,1583,,
2018年04月06日,13780,1600,,
2018年04月09日,13725,1593,,
2018年04月10日,13569,1578,,
2018年04月11日,13752,1604,,
2018年04月12日,13767,1610,,
2018年04月13日,13851,1624,,
2018年04月16日,13791,1621,,
2018年04月17日,13614,1601,,
2018年04月18日,13636,1612,,
2018年04月19日,13853,1639,,
2018年04月20日,13950,1651,,
2018年04月23日,13825,1636,,
2018年04月24日,13805,1641,,
2018年04月25日,13859,1649,,
2018年04月26日,13766,1640,,
2018年04月27日,13776,1646,,
2018年05月01日,13960,1669,,
2018年05月02日,13970,1673,,
2018年05月07日,13546,1622,,
2018年05月08日,13528,1643,,
2018年05月09日,13606,1653,,
2018年05月10日,13762,1666,,
2018年05月11日,13879,1681,,
2018年05月14日,13920,1691,,
2018年05月15日,14051,1708,,
2018年05月16日,13939,1698,,
2018年05月17日,14002,1707,,
2018年05月18日,13891,1694,,
2018年05月21日,13840,1689,,
2018年05月22日,13856,1691,,
2018年05月23日,13901,1701,,
2018年05月24日,13552,1659,,
2018年05月25日,13497,1651,,
2018年05月28日,13471,1649,,
2018年05月29日,13354,1642,,
2018年05月30日,13137,1615,,
2018年05月31日,13098,1617,,
2018年06月01日,13197,1632,,
2018年06月04日,13351,1651,,
2018年06月05日,13572,1698,,
2018年06月06日,13453,1683,,
2018年06月07日,13540,1700,,
2018年06月08日,13472,1693,,
2018年06月11日,13319,1674,,
2018年06月12日,13401,1684,,
2018年06月13日,13421,1691,,
2018年06月14日,13331,1681,,
2018年06月15日,13226,1668,,
2018年06月18日,13165,1658,,
2018年06月19日,12996,1642,,
2018年06月20日,12790,1616,,
2018年06月21日,12940,1638,,
2018年06月22日,12745,1622,,
2018年06月25日,12776,1626,,
2018年06月26日,12656,1612,,
2018年06月27日,12628,1615,,
2018年06月28日,12469,1598,,
2018年06月29日,12535,1609,,
2018年07月02日,12823,1648,,
2018年07月03日,12753,1644,,
2018年07月04日,12677,1634,,
2018年07月05日,12687,1653,0.00,2
2018年07月06日,12731,1659,,
2018年07月09日,12777,1668,,
2018年07月10日,13029,1695,,
2018年07月11日,13071,1701,,
2018年07月12日,13022,1698,,
2018年07月13日,13191,1720,,
2018年07月17日,13140,1714,,
2018年07月18日,13222,1723,,
2018年07月19日,13189,1727,,
2018年07月20日,13082,1713,,
2018年07月23日,13084,1714,,
2018年07月24日,13156,1729,,
2018年07月25日,13328,1756,,
2018年07月26日,13405,1767,,
2018年07月27日,13387,1772,,
2018年07月30日,13462,1784,,
2018年07月31日,13498,1791,,
2018年08月01日,13594,1801,,
2018年08月02日,13556,1802,,
2018年08月03日,13368,1791,,
2018年08月06日,13403,1797,,
2018年08月07日,13370,1788,,
2018年08月08日,13490,1806,,
2018年08月09日,13383,1792,,
2018年08月10日,13328,1782,,
2018年08月13日,13020,1738,,
2018年08月14日,12887,1725,,
2018年08月15日,13041,1732,,
2018年08月16日,12702,1690,,
2018年08月17日,12728,1693,,
2018年08月20日,12704,1700,,
2018年08月21日,12730,1703,,
2018年08月22日,12810,1720,,
2018年08月23日,12972,1744,,
2018年08月24日,12962,1743,,
2018年08月27日,12968,1746,,
2018年08月28日,13187,1777,,
2018年08月29日,13201,1779,,
2018年08月30日,13316,1806,,
2018年08月31日,13029,1773,,
2018年09月03日,13044,1776,,
2018年09月04日,12961,1766,,
2018年09月05日,12907,1758,,
2018年09月06日,12731,1733,,
2018年09月07日,12703,1730,,
2018年09月10日,12752,1742,,
2018年09月11日,12687,1733,,
2018年09月12日,12625,1735,,
2018年09月13日,12641,1737,,
2018年09月14日,12856,1771,,
2018年09月18日,12860,1771,,
2018年09月19日,13000,1791,,
2018年09月20日,13171,1826,,
2018年09月21日,13263,1839,,
2018年09月25日,13337,1849,,
2018年09月26日,13366,1859,,
2018年09月27日,13443,1870,,
2018年09月28日,13602,1901,,
2018年10月01日,13652,1908,,
2018年10月02日,13657,1910,,
2018年10月03日,13533,1893,,
2018年10月04日,13654,1910,,
2018年10月05日,13369,1880,,
2018年10月09日,13174,1853,,
2018年10月10日,13249,1867,,
2018年10月11日,13005,1834,,
2018年10月12日,12675,1794,,
2018年10月15日,12880,1826,,
2018年10月16日,12824,1818,,
2018年10月17日,13074,1872,,
2018年10月18日,13063,1872,,
2018年10月19日,12826,1838,,
2018年10月22日,12862,1843,,
2018年10月23日,12989,1866,,
2018年10月24日,12754,1840,,
2018年10月25日,12565,1814,,
2018年10月26日,12652,1829,,
2018年10月29日,12549,1818,,
2018年10月30日,12488,1809,,
2018年10月31日,12688,1841,,
2018年11月01日,12794,1857,,
2018年11月02日,13008,1896,,
2018年11月05日,13241,1945,,
2018年11月06日,13256,1948,,
2018年11月07日,13228,1946,,
2018年11月08日,13391,1971,,
2018年11月09日,13309,1959,,
2018年11月12日,13092,1927,,
2018年11月13日,12940,1908,,
2018年11月14日,12945,1909,,
2018年11月15日,12928,1917,,
2018年11月16日,13062,1938,,
2018年11月19日,13065,1939,,
2018年11月20日,13065,1949,,
2018年11月21日,12911,1930,,
2018年11月22日,12950,1936,,
2018年11月26日,12811,1921,,
2018年11月27日,12857,1928,,
2018年11月28日,12980,1956,,
2018年11月29日,13177,1989,,
2018年11月30日,13197,1995,,
2018年12月03日,13191,2002,,
2018年12月04日,13431,2040,,
2018年12月05日,13269,2032,,
2018年12月06日,13176,2019,,
2018年12月07日,12935,1982,,
2018年12月10日,12853,1969,,
2018年12月11日,12674,1942,,
2018年12月12日,12750,1961,,
2018年12月13日,12912,1989,,
2018年12月14日,13017,2008,,
2018年12月17日,12856,1981,,
2018年12月18日,12729,1963,,
2018年12月19日,12644,1961,,
2018年12月20日,12637,1962,,
2018年12月21日,12485,1943,,
2018年12月25日,12195,1904,,
2018年12月26日,12228,1910,,
2018年12月27日,12319,1924,,
2018年12月28日,12332,1926,,
2019年01月04日,12108,1899,,
2019年01月07日,12418,1945,,
2019年01月08日,12538,1992,,
2019年01月09日,12561,2001,,
2019年01月10日,12709,2029,,
2019年01月11日,12757,2040,,
2019年01月15日,12709,2036,,
2019年01月16日,12803,2052,,
2019年01月17日,12917,2085,,
2019年01月18日,12961,2093,,
2019年01月21日,13080,2114,,
2019年01月22日,13096,2119,,
2019年01月23日,12973,2099,,
2019年01月24日,13072,2126,,
2019年01月25日,13163,2146,,
2019年01月28日,13225,2158,,
2019年01月29日,13111,2139,,
2019年01月30日,13166,2158,,
2019年01月31日,13248,2172,,
2019年02月01日,13382,2208,,
2019年02月04日,13445,2219,,
2019年02月05日,13481,2241,,
2019年02月06日,13522,2245,,
2019年02月07日,13394,2224,,
2019年02月08日,13301,2209,,
2019年02月12日,13288,2206,,
2019年02月13日,13421,2229,,
2019年02月14日,13394,2233,,
2019年02月15日,13365,2228,,
2019年02月18日,13328,2222,,
2019年02月19日,13365,2237,,
2019年02月20日,13421,2247,,
2019年02月21日,13510,2257,,
2019年02月22日,13540,2268,,
2019年02月25日,13655,2286,,
2019年02月26日,13757,2303,,
2019年02月27日,13678,2292,,
2019年02月28日,13652,2286,,
2019年03月01日,13613,2279,,
2019年03月04日,13652,2288,,
2019年03月05日,13643,2313,,
2019年03月06日,13649,2313,,
2019年03月07日,13598,2305,,
2019年03月08日,13456,2282,,
2019年03月11日,13261,2246,,
2019年03月12日,13494,2285,,
2019年03月13日,13579,2305,,
2019年03月14日,13598,2309,,
2019年03月15日,13643,2315,,
2019年03月18日,13720,2328,,
2019年03月19日,13856,2360,,
2019年03月20日,13910,2369,,
2019年03月22日,13729,2336,,
2019年03月25日,13392,2284,,
2019年03月26日,13323,2277,,
2019年03月27日,13405,2296,,
2019年03月28日,13241,2269,,
2019年03月29日,13377,2296,,
2019年04月01日,13506,2320,,
2019年04月02日,13770,2376,,
2019年04月03日,13760,2389,,
2019年04月04日,13828,2400,,
2019年04月05日,13916,2414,,
2019年04月08日,13923,2408,,
2019年04月09日,13985,2418,,
2019年04月10日,13985,2413,,
2019年04月11日,14001,2414,,
2019年04月12日,13915,2406,,
2019年04月15日,13940,2409,,
2019年04月16日,13932,2403,,
2019年04月17日,14074,2427,,
2019年04月18日,14077,2426,,
2019年04月19日,14055,2422,,
2019年04月22日,14048,2418,,
2019年04月23日,13973,2405,,
2019年04月24日,14003,2411,,
2019年04月25日,13914,2400,,
2019年04月26日,13799,2384,,
2019年05月07日,13486,2334,,
2019年05月08日,13342,2312,,
2019年05月09日,13251,2324,,
2019年05月10日,12993,2279,,
2019年05月13日,13022,2299,,
2019年05月14日,12797,2260,,
2019年05月15日,12845,2269,,
2019年05月16日,12812,2271,,
2019年05月17日,12838,2288,,
2019年05月20日,12733,2273,,
2019年05月21日,12782,2282,,
2019年05月22日,12893,2310,,
2019年05月23日,12851,2307,,
2019年05月24日,12634,2271,,
2019年05月27日,12665,2279,,
2019年05月28日,12682,2281,,
2019年05月29日,12609,2268,,
2019年05月30日,12713,2296,,
2019年05月31日,12777,2319,,
2019年06月03日,12717,2311,,
2019年06月04日,12799,2339,,
2019年06月05日,12783,2354,,
2019年06月06日,12766,2352,,
2019年06月07日,12778,2355,,
2019年06月10日,12836,2369,,
2019年06月11日,12968,2394,,
2019年06月12日,13134,2435,,
2019年06月13日,13020,2419,,
2019年06月14日,13003,2418,,
2019年06月17日,12932,2406,,
2019年06月18日,12895,2401,,
2019年06月19日,13062,2446,,
2019年06月20日,13169,2468,,
2019年06月21日,13289,2495,,
2019年06月24日,13274,2492,,
2019年06月25日,13286,2501,,
2019年06月26日,13171,2481,,
2019年06月27日,13271,2506,,
2019年06月28日,13363,2526,,
2019年07月01日,13414,2539,,
2019年07月02日,13562,2568,,
2019年07月03日,13461,2549,,
2019年07月04日,13469,2582,,
2019年07月05日,13553,2602,0.00,3
2019年07月08日,13548,2601,,
2019年07月09日,13512,2593,,
2019年07月10日,13454,2581,,
2019年07月11日,13479,2586,,
2019年07月12日,13554,2608,,
2019年07月16日,13471,2591,,
2019年07月17日,13531,2602,,
2019年07月18日,13424,2591,,
2019年07月19日,13402,2591,,
2019年07月22日,13456,2618,,
2019年07月23日,13421,2614,,
2019年07月24日,13429,2621,,
2019年07月25日,13411,2619,,
2019年07月26日,13414,2619,,
2019年07月29日,13336,2608,,
2019年07月30日,13369,2617,,
2019年07月31日,13284,2605,,
2019年08月01日,13242,2597,,
2019年08月02日,12841,2535,,
2019年08月05日,12506,2485,,
2019年08月06日,12091,2402,,
2019年08月07日,12194,2428,,
2019年08月08日,12154,2421,,
2019年08月09日,12299,2453,,
2019年08月13日,12036,2403,,
2019年08月14日,12118,2424,,
2019年08月15日,11900,2390,,
2019年08月16日,11920,2398,,
2019年08月19日,12008,2416,,
2019年08月20日,12064,2442,,
2019年08月21日,12061,2447,,
2019年08月22日,12181,2477,,
2019年08月23日,12065,2463,,
2019年08月26日,11810,2413,,
2019年08月27日,11807,2414,,
2019年08月28日,11796,2412,,
2019年08月29日,11864,2437,,
2019年08月30日,12009,2470,,
2019年09月02日,12136,2512,,
2019年09月03日,12123,2509,,
2019年09月04日,11987,2480,,
2019年09月05日,12297,2574,,
2019年09月06日,12496,2637,,
2019年09月09日,12571,2657,,
2019年09月10日,12654,2674,,
2019年09月11日,12697,2683,,
2019年09月12日,12890,2724,,
2019年09月13日,12979,2752,,
2019年09月17日,13046,2769,,
2019年09月18日,12939,2744,,
2019年09月19日,12949,2760,,
2019年09月20日,12790,2727,,
2019年09月24日,12762,2716,,
2019年09月25日,12629,2692,,
2019年09月26日,12645,2699,,
2019年09月27日,12697,2717,,
2019年09月30日,12655,2711,,
2019年10月01日,12661,2717,,
2019年10月02日,12568,2701,,
2019年10月03日,12402,2665,,
2019年10月04日,12423,2670,,
2019年10月07日,12449,2709,,
2019年10月08日,12453,2709,,
2019年10月09日,12401,2697,,
2019年10月10日,12443,2707,,
2019年10月11日,12609,2752,,
2019年10月15日,12872,2814,,
2019年10月16日,12920,2825,,
2019年10月17日,13003,2864,,
2019年10月18日,13049,2871,,
2019年10月21日,13034,2864,,
2019年10月23日,13145,2889,,
2019年10月24日,13195,2900,,
2019年10月25日,13249,2901,,
2019年10月28日,13280,2906,,
2019年10月29日,13369,2926,,
2019年10月30日,13364,2925,,
2019年10月31日,13359,2922,,
2019年11月01日,13198,2906,,
2019年11月05日,13619,2999,,
2019年11月06日,13722,3039,,
2019年11月07日,13663,3026,,
2019年11月08日,13808,3053,,
2019年11月11日,13623,3004,,
2019年11月12日,13469,2956,,
2019年11月13日,13417,2945,,
2019年11月14日,13264,2911,,
2019年11月15日,13196,2896,,
2019年11月18日,13297,2922,,
2019年11月19日,13289,2920,,
2019年11月20日,13389,2971,,
2019年11月21日,13337,2961,,
2019年11月22日,13319,2957,,
2019年11月25日,13367,2977,,
2019年11月26日,13436,2989,,
2019年11月27日,13361,2976,,
2019年11月28日,13440,2994,,
2019年11月29日,13446,2998,,
2019年12月02日,13310,2968,,
2019年12月03日,13260,2982,,
2019年12月04日,13138,2971,,
2019年12月05日,13212,2989,,
2019年12月06日,13272,3003,,
2019年12月09日,13309,3013,,
2019年12月10日,13347,3022,,
2019年12月11日,13342,3016,,
2019年12月12日,13437,3043,,
2019年12月13日,13738,3116,,
2019年12月16日,13887,3152,,
2019年12月17日,13922,3157,,
2019年12月18日,14065,3201,,
2019年12月19日,14187,3226,,
2019年12月20日,14132,3208,,
2019年12月23日,14129,3208,,
2019年12月24日,14187,3216,,
2019年12月25日,14155,3208,,
2019年12月26日,14190,3216,,
2019年12月27日,14243,3228,,
2019年12月30日,14334,3249,,
2020年01月06日,14242,3209,,
2020年01月07日,14161,3192,,
2020年01月08日,14054,3205,,
2020年01月09日,14210,3241,,
2020年01月10日,14389,3280,,
2020年01月14日,14590,3329,,
2020年01月15日,14535,3323,,
2020年01月16日,14458,3304,,
2020年01月17日,14528,3335,,
2020年01月20日,14621,3358,,
2020年01月21日,14566,3344,,
2020年01月22日,14268,3276,,
2020年01月23日,14326,3304,,
2020年01月24日,14191,3270,,
2020年01月27日,14083,3247,,
2020年01月28日,13780,3177,,
2020年01月29日,13870,3198,,
2020年01月30日,13729,3166,,
2020年01月31日,13443,3129,,
2020年02月03日,13164,3062,,
2020年02月04日,13198,3071,,
2020年02月05日,13545,3168,,
2020年02月06日,13702,3210,,
2020年02月07日,13792,3238,,
2020年02月10日,13607,3196,,
2020年02月12日,13753,3234,,
2020年02月13日,13875,3270,,
2020年02月14日,13799,3257,,
2020年02月17日,13786,3254,,
2020年02月18日,13801,3261,,
2020年02月19日,13668,3230,,
2020年02月20日,13966,3319,,
2020年02月21日,13909,3309,,
2020年02月25日,13313,3170,,
2020年02月26日,13162,3134,,
2020年02月27日,12987,3093,,
2020年02月28日,12680,3027,,
2020年03月02日,12182,2910,,
2020年03月03日,12418,2964,,
2020年03月04日,12393,2988,,
2020年03月05日,12514,3024,,
2020年03月06日,12263,2965,,
2020年03月09日,11381,2755,,
2020年03月10日,10646,2580,,
2020年03月11日,11091,2688,,
2020年03月12日,10788,2615,,
2020年03月13日,10011,2419,,
2020年03月16日,10484,2533,,
2020年03月17日,9659,2329,,
2020年03月18日,9817,2392,,
2020年03月19日,9306,2269,,
2020年03月23日,9658,2360,,
2020年03月24日,9170,2243,,
2020年03月25日,9719,2382,,
2020年03月26日,10057,2467,,
2020年03月27日,10071,2471,,
2020年03月30日,9730,2393,,
2020年03月31日,9754,2401,,
2020年04月01日,9873,2434,,
2020年04月02日,9651,2401,,
2020年04月03日,9866,2474,,
2020年04月06日,9860,2473,,
2020年04月07日,10143,2546,,
2020年04月08日,10358,2600,,
2020年04月09日,10393,2613,,
2020年04月10日,10479,2637,,
2020年04月13日,10448,2634,,
2020年04月14日,10370,2615,,
2020年04月15日,10424,2628,,
2020年04月16日,10240,2582,,
2020年04月17日,10204,2608,,
2020年04月20日,10369,2652,,
2020年04月21日,10294,2636,,
2020年04月22日,10051,2583,,
2020年04月23日,10145,2607,,
2020年04月24日,10186,2627,,
2020年04月27日,10062,2595,,
2020年04月28日,10207,2632,,
2020年04月30日,10547,2732,,
2020年05月01日,10574,2742,,
2020年05月07日,10144,2630,,
2020年05月08日,10151,2632,,
2020年05月11日,10364,2741,,
2020年05月12日,10426,2757,,
2020年05月13日,10312,2737,,
2020年05月14日,10254,2724,,
2020年05月15日,10218,2718,,
2020年05月18日,10168,2711,,
2020年05月19日,10398,2781,,
2020年05月20日,10537,2825,,
2020年05月21日,10606,2846,,
2020年05月22日,10625,2863,,
2020年05月25日,10365,2795,,
2020年05月26日,10442,2819,,
2020年05月27日,10574,2855,,
2020年05月28日,10666,2891,,
2020年05月29日,10627,2888,,
2020年06月01日,10690,2908,,
2020年06月02日,10885,2987,,
2020年06月03日,11236,3107,,
2020年06月04日,11463,3174,,
2020年06月05日,11461,3176,,
2020年06月08日,11759,3263,,
2020年06月09日,11727,3272,,
2020年06月10日,11653,3254,,
2020年06月11日,11521,3219,,
2020年06月12日,11159,3128,,
2020年06月15日,11185,3135,,
2020年06月16日,11043,3091,,
2020年06月17日,11199,3163,,
2020年06月18日,11177,3158,,
2020年06月19日,11179,3168,,
2020年06月22日,11244,3190,,
2020年06月23日,11260,3201,,
2020年06月24日,11317,3224,,
2020年06月25日,11217,3196,,
2020年06月26日,11243,3207,,
2020年06月29日,11138,3177,,
2020年06月30日,11200,3203,,
2020年07月01日,11184,3203,,
2020年07月02日,11217,3212,,
2020年07月03日,11477,3286,,
2020年07月06日,11570,3368,0.00,4
2020年07月07日,11951,3479,,
2020年07月08日,11845,3453,,
2020年07月09日,11948,3484,,
2020年07月10日,11906,3473,,
2020年07月13日,11764,3435,,
2020年07月14日,11800,3441,,
2020年07月15日,11760,3428,,
2020年07月16日,11727,3425,,
2020年07月17日,11670,3428,,
2020年07月20日,11732,3447,,
2020年07月21日,11815,3475,,
2020年07月22日,11927,3513,,
2020年07月27日,11579,3417,,
2020年07月28日,11683,3449,,
2020年07月29日,11644,3445,,
2020年07月30日,11693,3461,,
2020年07月31日,11539,3440,,
2020年08月03日,11611,3462,,
2020年08月04日,11581,3455,,
2020年08月05日,11642,3485,,
2020年08月06日,11736,3512,,
2020年08月07日,11736,3514,,
2020年08月11日,11669,3494,,
2020年08月12日,11803,3537,,
2020年08月13日,11852,3557,,
2020年08月14日,11913,3581,,
2020年08月17日,11860,3569,,
2020年08月18日,11830,3565,,
2020年08月19日,11813,3578,,
2020年08月20日,11832,3586,,
2020年08月21日,11619,3529,,
2020年08月24日,11673,3555,,
2020年08月25日,11800,3594,,
2020年08月26日,11886,3621,,
2020年08月27日,11815,3603,,
2020年08月28日,11834,3612,,
2020年08月31日,11763,3595,,
2020年09月01日,11578,3539,,
2020年09月02日,11736,3587,,
2020年09月03日,11700,3610,,
2020年09月04日,11645,3594,,
2020年09月07日,11634,3591,,
2020年09月08日,11602,3584,,
2020年09月09日,11522,3559,,
2020年09月10日,11602,3588,,
2020年09月11日,11553,3577,,
2020年09月14日,11591,3594,,
2020年09月15日,11646,3612,,
2020年09月16日,11681,3629,,
2020年09月17日,11674,3647,,
2020年09月18日,11597,3623,,
2020年09月23日,11282,3526,,
2020年09月24日,11184,3497,,
2020年09月25日,11061,3471,,
2020年09月28日,11010,3453,,
2020年09月29日,11110,3488,,
2020年09月30日,11098,3493,,
2020年10月01日,11188,3523,,
2020年10月02日,11213,3559,,
2020年10月05日,11175,3547,,
2020年10月06日,11264,3575,,
2020年10月07日,11333,3617,,
2020年10月08日,11411,3644,,
2020年10月09日,11515,3678,,
2020年10月12日,11528,3684,,
2020年10月13日,11616,3722,,
2020年10月14日,11602,3717,,
2020年10月15日,11554,3706,,
2020年10月16日,11429,3672,,
2020年10月19日,11496,3711,,
2020年10月20日,11593,3742,,
2020年10月21日,11608,3752,,
2020年10月22日,11598,3753,,
2020年10月23日,11661,3778,,
2020年10月26日,11717,3798,,
2020年10月27日,11652,3773,,
2020年10月28日,11498,3724,,
2020年10月29日,11251,3651,,
2020年10月30日,11242,3650,,
2020年11月02日,11124,3635,,
2020年11月04日,11372,3718,,
2020年11月05日,11478,3752,,
2020年11月06日,11689,3839,,
2020年11月09日,11774,3871,,
2020年11月10日,12239,4023,,
2020年11月11日,12320,4049,,
2020年11月12日,12506,4114,,
2020年11月13日,12344,4061,,
2020年11月16日,12318,4046,,
2020年11月17日,12425,4077,,
2020年11月18日,12447,4085,,
2020年11月19日,12491,4123,,
2020年11月20日,12439,4109,,
2020年11月24日,12629,4177,,
2020年11月25日,12717,4209,,
2020年11月26日,12722,4209,,
2020年11月27日,12771,4225,,
2020年11月30日,12766,4224,,
2020年12月01日,12542,4151,,
2020年12月02日,12862,4257,,
2020年12月03日,12927,4326,,
2020年12月04日,12907,4323,,
2020年12月07日,13049,4374,,
2020年12月08日,13035,4372,,
2020年12月09日,13032,4368,,
2020年12月10日,13047,4371,,
2020年12月11日,13067,4385,,
2020年12月14日,13095,4402,,
2020年12月15日,13056,4395,,
2020年12月16日,13040,4397,,
2020年12月17日,13119,4447,,
2020年12月18日,13178,4464,,
2020年12月21日,13164,4465,,
2020年12月22日,12931,4394,,
2020年12月23日,12918,4405,,
2020年12月24日,13004,4440,,
2020年12月25日,13013,4443,,
2020年12月28日,13047,4455,,
2020年12月29日,13163,4495,,
2020年12月30日,13216,4513,,
2021年01月04日,13268,4546,,
2021年01月05日,13342,4605,,
2021年01月06日,13364,4642,,
2021年01月07日,13487,4667,,
2021年01月08日,13706,4739,,
2021年01月12日,13924,4817,,
2021年01月13日,14026,4852,,
2021年01月14日,14140,4904,,
2021年01月15日,14235,4935,,
2021年01月18日,14102,4894,,
2021年01月19日,14119,4917,,
2021年01月20日,14319,4987,,
2021年01月21日,14353,5006,,
2021年01月22日,14338,5016,,
2021年01月25日,14101,4939,,
2021年01月26日,14140,4953,,
2021年01月27日,14019,4911,,
2021年01月28日,13938,4883,,
2021年01月29日,13862,4871,,
2021年02月01日,13626,4782,,
2021年02月02日,13892,4906,,
2021年02月03日,14153,5035,,
2021年02月04日,14218,5058,,
2021年02月05日,14302,5096,,
2021年02月08日,14438,5153,,
2021年02月09日,14469,5162,,
2021年02月10日,14499,5172,,
2021年02月12日,14635,5212,,
2021年02月15日,14714,5242,,
2021年02月16日,14820,5280,,
2021年02月17日,14979,5336,,
2021年02月18日,15025,5353,,
2021年02月19日,14901,5346,,
2021年02月22日,14898,5345,,
2021年02月24日,14808,5310,,
2021年02月25日,14756,5320,,
2021年02月26日,14801,5335,,
2021年03月01日,14418,5201,,
2021年03月02日,14658,5285,,
2021年03月03日,14662,5314,,
2021年03月04日,14920,5410,,
2021年03月05日,14829,5406,,
2021年03月08日,14919,5427,,
2021年03月09日,14803,5392,,
2021年03月10日,14856,5406,,
2021年03月11日,14951,5451,,
2021年03月12日,15272,5577,,
2021年03月15日,15249,5569,,
2021年03月16日,15320,5595,,
2021年03月17日,15318,5619,,
2021年03月18日,15255,5589,,
2021年03月19日,15201,5567,,
2021年03月22日,15022,5508,,
2021年03月23日,15067,5531,,
2021年03月24日,14849,5457,,
2021年03月25日,14664,5390,,
2021年03月26日,14658,5391,,
2021年03月29日,14841,5470,,
2021年03月30日,14998,5531,,
2021年03月31日,15172,5596,,
2021年04月01日,15182,5609,,
2021年04月02日,15157,5590,,
2021年04月05日,15144,5601,,
2021年04月06日,15125,5594,,
2021年04月07日,15073,5575,,
2021年04月08日,15030,5559,,
2021年04月09日,15029,5555,,
2021年04月12日,14935,5537,,
2021年04月13日,14833,5508,,
2021年04月14日,14805,5507,,
2021年04月15日,14983,5574,,
2021年04月16日,14984,5574,,
2021年04月19日,15104,5645,,
2021年04月20日,15045,5618,,
2021年04月21日,14967,5592,,
2021年04月22日,14911,5579,,
2021年04月23日,14949,5593,,
2021年04月26日,15017,5631,,
2021年04月27日,15092,5660,,
2021年04月28日,15176,5705,,
2021年04月30日,15351,5773,,
2021年05月06日,15161,5704,,
2021年05月07日,15294,5789,,
2021年05月10日,15466,5875,,
2021年05月11日,15517,5900,,
2021年05月12日,15337,5850,,
2021年05月13日,15202,5819,,
2021年05月14日,15133,5794,,
2021年05月17日,15233,5832,,
2021年05月18日,15194,5852,,
2021年05月19日,15424,5939,,
2021年05月20日,15370,5923,,
2021年05月21日,15276,5887,,
2021年05月24日,15287,5907,,
2021年05月25日,15301,5910,,
2021年05月26日,15405,5947,,
2021年05月27日,15560,6020,,
2021年05月28日,15731,6090,,
2021年05月31日,15834,6135,,
2021年06月01日,15895,6162,,
2021年06月02日,16077,6233,,
2021年06月03日,16190,6323,,
2021年06月04日,16218,6336,,
2021年06月07日,16178,6321,,
2021年06月08日,16177,6325,,
2021年06月09日,16158,6364,,
2021年06月10日,16162,6369,,
2021年06月11日,16210,6395,,
2021年06月14日,16250,6417,,
2021年06月15日,16332,6451,,
2021年06月16日,16234,6412,,
2021年06月17日,16243,6428,,
2021年06月18日,16089,6368,,
2021年06月21日,15892,6291,,
2021年06月22日,15866,6289,,
2021年06月23日,15964,6336,,
2021年06月24日,16098,6390,,
2021年06月25日,16188,6446,,
2021年06月28日,16159,6437,,
2021年06月29日,16072,6408,,
2021年06月30日,15970,6383,,
2021年07月01日,16015,6406,,
2021年07月02日,16013,6454,,
2021年07月05日,15922,6417,0.00,5
2021年07月06日,15901,6436,,
2021年07月07日,15668,6341,,
2021年07月08日,15661,6353,,
2021年07月09日,15310,6213,,
2021年07月12日,15388,6249,,
2021年07月13日,15527,6306,,
2021年07月14日,15640,6359,,
2021年07月15日,15558,6318,,
2021年07月16日,15598,6347,,
2021年07月19日,15513,6341,,
2021年07月20日,15174,6200,,
2021年07月21日,15187,6219,,
2021年07月26日,15377,6304,,
2021年07月27日,15222,6240,,
2021年07月28日,15012,6181,,
2021年07月29日,15168,6250,,
2021年07月30日,15289,6302,,
2021年08月02日,15095,6268,,
2021年08月03日,15240,6331,,
2021年08月04日,15260,6365,,
2021年08月05日,15336,6400,,
2021年08月06日,15341,6406,,
2021年08月10日,15398,6431,,
2021年08月11日,15459,6456,,
2021年08月12日,15527,6490,,
2021年08月13日,15483,6475,,
2021年08月16日,15342,6429,,
2021年08月17日,15257,6393,,
2021年08月18日,15181,6401,,
2021年08月19日,15235,6427,,
2021年08月20日,14934,6310,,
2021年08月23日,14844,6272,,
2021年08月24日,15023,6362,,
2021年08月25日,15299,6481,,
2021年08月26日,15394,6526,,
2021年08月27日,15248,6468,,
2021年08月30日,15426,6548,,
2021年08月31日,15548,6601,,
2021年09月01日,15772,6696,,
2021年09月02日,15793,6748,,
2021年09月03日,15748,6746,,
2021年09月06日,15808,6769,,
2021年09月07日,15883,6799,,
2021年09月08日,15934,6821,,
2021年09月09日,15671,6709,,
2021年09月10日,15674,6704,,
2021年09月13日,15741,6733,,
2021年09月14日,15853,6781,,
2021年09月15日,15694,6789,,
2021年09月16日,15660,6786,,
2021年09月17日,15550,6762,,
2021年09月21日,15033,6537,,
2021年09月22日,15110,6578,,
2021年09月24日,15561,6794,,
2021年09月27日,15502,6769,,
2021年09月28日,15592,6762,,
2021年09月29日,15621,6771,,
2021年09月30日,15663,6787,,
2021年10月01日,15635,6811,,
2021年10月04日,15612,6803,,
2021年10月05日,15491,6750,,
2021年10月06日,15732,6874,,
2021年10月07日,15616,6820,,
2021年10月08日,15820,6911,,
2021年10月11日,15968,6976,,
2021年10月12日,16204,7081,,
2021年10月13日,16154,7060,,
2021年10月14日,16214,7086,,
2021年10月15日,16320,7150,,
2021年10月18日,16542,7247,,
2021年10月19日,16534,7243,,
2021年10月20日,16598,7309,,
2021年10月21日,16566,7287,,
2021年10月22日,16369,7213,,
2021年10月25日,16292,7175,,
2021年10月26日,16437,7234,,
2021年10月27日,16433,7237,,
2021年10月28日,16289,7174,,
2021年10月29日,16103,7098,,
2021年11月01日,15967,7039,,
2021年11月02日,16070,7126,,
2021年11月04日,16041,7133,,
2021年11月05日,15930,7084,,
2021年11月08日,15942,7090,,
2021年11月09日,16036,7131,,
2021年11月10日,15991,7111,,
2021年11月11日,16130,7172,,
2021年11月12日,16314,7266,,
2021年11月15日,16192,7212,,
2021年11月16日,16231,7231,,
2021年11月17日,16276,7251,,
2021年11月18日,16158,7233,,
2021年11月19日,15999,7168,,
2021年11月22日,15877,7118,,
2021年11月24日,15953,7152,,
2021年11月25日,15983,7184,,
2021年11月26日,15960,7174,,
2021年11月29日,15319,6885,,
2021年11月30日,15375,6903,,
2021年12月01日,15213,6842,,
2021年12月02日,15331,6903,,
2021年12月03日,15576,7073,,
2021年12月06日,15520,7048,,
2021年12月07日,15530,7050,,
2021年12月08日,15791,7175,,
2021年12月09日,15855,7199,,
2021年12月10日,15802,7175,,
2021年12月13日,15758,7165,,
2021年12月14日,15605,7095,,
2021年12月15日,15544,7071,,
2021年12月16日,15590,7109,,
2021年12月17日,15691,7182,,
2021年12月20日,15506,7096,,
2021年12月21日,15308,7009,,
2021年12月22日,15536,7128,,
2021年12月23日,15641,7187,,
2021年12月24日,15805,7267,,
2021年12月27日,15800,7260,,
2021年12月28日,15914,7312,,
2021年12月29日,15954,7331,,
2021年12月30日,15898,7305,,
2022年01月04日,16118,7463,,
2022年01月05日,16306,7551,,
2022年01月06日,16203,7521,,
2022年01月07日,16157,7501,,
2022年01月11日,16307,7567,,
2022年01月12日,16505,7660,,
2022年01月13日,16619,7721,,
2022年01月14日,16486,7666,,
2022年01月17日,16458,7653,,
2022年01月18日,16494,7677,,
2022年01月19日,16301,7588,,
2022年01月20日,16421,7678,,
2022年01月21日,16450,7701,,
2022年01月24日,16311,7642,,
2022年01月25日,16049,7523,,
2022年01月26日,16050,7523,,
2022年01月27日,16196,7598,,
2022年01月28日,16349,7670,,
2022年01月31日,16311,7660,,
2022年02月01日,16502,7751,,
2022年02月02日,16533,7807,,
2022年02月03日,16462,7774,,
2022年02月04日,16465,7775,,
2022年02月07日,16589,7834,,
2022年02月08日,16695,7916,,
2022年02月09日,16870,8001,,
2022年02月10日,17064,8077,,
2022年02月14日,17059,8080,,
2022年02月15日,16837,7971,,
2022年02月16日,17015,8069,,
2022年02月17日,17173,8243,,
2022年02月18日,16944,8132,,
2022年02月21日,16871,8097,,
2022年02月22日,16640,8011,,
2022年02月24日,16432,7911,,
2022年02月25日,15647,7539,,
2022年02月28日,15884,7652,,
2022年03月01日,15509,7470,,
2022年03月02日,15328,7383,,
2022年03月03日,15348,7393,,
2022年03月04日,15349,7403,,
2022年03月07日,15058,7266,,
2022年03月08日,14700,7093,,
2022年03月09日,14693,7092,,
2022年03月10日,14872,7175,,
2022年03月11日,15027,7258,,
2022年03月14日,15019,7260,,
2022年03月15日,14847,7177,,
2022年03月16日,14520,7032,,
2022年03月17日,15163,7371,,
2022年03月18日,15474,7522,,
2022年03月22日,15713,7639,,
2022年03月23日,16123,7839,,
2022年03月24日,16170,7888,,
2022年03月25日,16330,7968,,
2022年03月28日,16254,7931,,
2022年03月29日,16532,8072,,
2022年03月30日,16432,8029,,
2022年03月31日,16566,8096,,
2022年04月01日,16477,8087,,
2022年04月04日,16659,8180,,
2022年04月05日,16886,8310,,
2022年04月06日,16926,8322,,
2022年04月07日,16761,8241,,
2022年04月08日,16619,8171,,
2022年04月11日,16825,8274,,
2022年04月12日,16742,8228,,
2022年04月13日,16688,8218,,
2022年04月14日,16791,8270,,
2022年04月15日,16865,8307,,
2022年04月18日,16875,8312,,
2022年04月19日,16912,8331,,
2022年04月20日,17010,8379,,
2022年04月21日,16806,8329,,
2022年04月22日,16746,8309,,
2022年04月25日,16498,8186,,
2022年04月26日,15953,7916,,
2022年04月27日,15848,7870,,
2022年04月28日,16080,7984,,
2022年05月02日,16525,8212,,
2022年05月06日,16360,8130,,
2022年05月09日,16035,7969,,
2022年05月10日,15674,7853,,
2022年05月11日,15633,7832,,
2022年05月12日,15580,7817,,
2022年05月13日,15244,7663,,
2022年05月16日,15587,7838,,
2022年05月17日,15443,7767,,
2022年05月18日,15802,7993,,
2022年05月19日,15584,7885,,
2022年05月20日,15421,7814,,
2022年05月23日,15684,7957,,
2022年05月24日,15756,7999,,
2022年05月25日,15510,7877,,
2022年05月26日,15610,7930,,
2022年05月27日,15673,7966,,
2022年05月30日,15916,8095,,
2022年05月31日,16197,8234,,
2022年06月01日,16448,8362,,
2022年06月02日,16435,8404,,
2022年06月03日,16419,8410,,
2022年06月06日,16476,8439,,
2022年06月07日,16720,8564,,
2022年06月08日,16710,8565,,
2022年06月09日,16968,8695,,
2022年06月10日,16823,8618,,
2022年06月13日,16674,8549,,
2022年06月14日,16064,8245,,
2022年06月15日,16195,8338,,
2022年06月16日,16303,8408,,
2022年06月17日,15866,8192,,
2022年06月20日,15981,8252,,
2022年06月21日,15953,8241,,
2022年06月22日,16360,8451,,
2022年06月23日,16012,8299,,
2022年06月24日,15901,8252,,
2022年06月27日,16034,8318,,
2022年06月28日,16344,8478,,
2022年06月29日,16427,8534,,
2022年06月30日,16384,8514,,
2022年07月01日,16132,8429,,
2022年07月04日,15906,8316,,
2022年07月05日,16013,8371,0.00,6
2022年07月06日,15854,8289,,
2022年07月07日,15726,8242,,
2022年07月08日,15997,8384,,
2022年07月11日,16132,8457,,
2022年07月12日,15885,8331,,
2022年07月13日,15707,8255,,
2022年07月14日,15795,8303,,
2022年07月15日,15709,8261,,
2022年07月19日,15839,8340,,
2022年07月20日,15899,8403,,
2022年07月21日,15950,8440,,
2022年07月22日,15824,8379,,
2022年07月25日,15735,8339,,
2022年07月26日,15816,8384,,
2022年07月27日,15908,8442,,
2022年07月28日,15933,8451,,
2022年07月29日,15845,8410,,
2022年08月01日,15599,8278,,
2022年08月02日,15320,8176,,
2022年08月03日,15476,8279,,
2022年08月04日,15510,8295,,
2022年08月05日,15592,8341,,
2022年08月08日,15975,8551,,
2022年08月09日,15992,8561,,
2022年08月10日,16059,8608,,
2022年08月12日,16037,8596,,
2022年08月15日,16168,8689,,
2022年08月16日,16105,8654,,
2022年08月17日,16291,8754,,
2022年08月18日,16382,8844,,
2022年08月19日,16439,8873,,
2022年08月22日,16432,8876,,
2022年08月23日,16363,8847,,
2022年08月24日,16395,8854,,
2022年08月25日,16385,8848,,
2022年08月26日,16648,8986,,
2022年08月29日,16828,9106,,
2022年08月30日,16743,9063,,
2022年08月31日,16631,9002,,
2022年09月01日,16689,9035,,
2022年09月02日,16601,8988,,
2022年09月05日,16614,9032,,
2022年09月06日,16671,9061,,
2022年09月07日,16881,9175,,
2022年09月08日,17006,9241,,
2022年09月09日,16923,9195,,
2022年09月12日,17095,9292,,
2022年09月13日,17272,9394,,
2022年09月14日,17230,9371,,
2022年09月15日,16933,9218,,
2022年09月16日,16788,9141,,
2022年09月20日,16569,9050,,
2022年09月21日,16672,9116,,
2022年09月22日,16564,9098,,
2022年09月26日,16087,8837,,
2022年09月27日,15837,8714,,
2022年09月28日,15847,8725,,
2022年09月29日,15641,8615,,
2022年09月30日,15577,8584,,
2022年10月03日,15676,8681,,
2022年10月04日,15945,8835,,
2022年10月05日,16072,8936,,
2022年10月06日,16394,9115,,
2022年10月07日,16385,9110,,
2022年10月11日,16124,8968,,
2022年10月12日,15852,8817,,
2022年10月13日,15924,8869,,
2022年10月14日,15906,8860,,
2022年10月17日,15974,8911,,
2022年10月18日,16201,9049,,
2022年10月19日,16407,9196,,
2022年10月20日,16334,9155,,
2022年10月21日,16440,9236,,
2022年10月24日,16475,9260,,
2022年10月25日,15902,8939,,
2022年10月26日,15833,8900,,
2022年10月27日,15626,8788,,
2022年10月28日,15761,8864,,
2022年10月31日,15767,8882,,
2022年11月01日,15778,8895,,
2022年11月02日,15935,9035,,
2022年11月04日,15931,9075,,
2022年11月07日,16248,9255,,
2022年11月08日,16272,9264,,
2022年11月09日,16236,9241,,
2022年11月10日,16147,9191,,
2022年11月11日,15599,8887,,
2022年11月14日,15904,9067,,
2022年11月15日,16100,9179,,
2022年11月16日,16287,9304,,
2022年11月17日,16098,9196,,
2022年11月18日,16099,9229,,
2022年11月21日,16054,9204,,
2022年11月22日,16190,9290,,
2022年11月24日,16042,9197,,
2022年11月25日,16186,9280,,
2022年11月28日,16123,9244,,
2022年11月29日,15981,9170,,
2022年11月30日,16388,9402,,
2022年12月01日,16502,9467,,
2022年12月02日,16276,9387,,
2022年12月05日,16128,9318,,
2022年12月06日,16443,9495,,
2022年12月07日,16474,9514,,
2022年12月08日,16173,9341,,
2022年12月09日,16320,9426,,
2022年12月12日,16386,9461,,
2022年12月13日,16342,9446,,
2022年12月14日,16070,9298,,
2022年12月15日,16112,9321,,
2022年12月16日,16194,9382,,
2022年12月19日,16028,9317,,
2022年12月20日,15891,9239,,
2022年12月21日,15533,9043,,
2022年12月22日,15652,9117,,
2022年12月23日,15781,9208,,
2022年12月26日,15696,9163,,
2022年12月27日,15797,9224,,
2022年12月28日,15930,9302,,
2022年12月29日,15999,9342,,
2022年12月30日,15826,9255,,
2023年01月04日,15617,9184,,
2023年01月05日,15994,9406,,
2023年01月06日,16256,9588,,
2023年01月10日,16466,9716,,
2023年01月11日,16572,9779,,
2023年01月12日,16630,9819,,
2023年01月13日,16378,9686,,
2023年01月16日,16317,9663,,
2023年01月17日,16356,9685,,
2023年01月18日,16711,9895,,
2023年01月19日,16380,9742,,
2023年01月20日,16440,9791,,
2023年01月23日,16682,9946,,
2023年01月24日,16833,10047,,
2023年01月25日,16875,10072,,
2023年01月26日,16757,10001,,
2023年01月27日,16908,10092,,
2023年01月30日,16911,10094,,
2023年01月31日,16775,10032,,
2023年02月01日,16638,9939,,
2023年02月02日,16568,9942,,
2023年02月03日,16502,9923,,
2023年02月06日,16764,10082,,
2023年02月07日,16552,9954,,
2023年02月08日,16310,9811,,
2023年02月09日,16485,9914,,
2023年02月10日,16490,9922,,
2023年02月13日,16392,9874,,
2023年02月14日,16523,9963,,
2023年02月15日,16578,9996,,
2023年02月16日,16711,10090,,
2023年02月17日,16810,10180,,
2023年02月20日,16715,10121,,
2023年02月21日,16789,10165,,
2023年02月22日,16727,10128,,
2023年02月24日,16566,10031,,
2023年02月27日,16485,10009,,
2023年02月28日,16499,10014,,
2023年03月01日,16390,9960,,
2023年03月02日,16740,10178,,
2023年03月03日,16742,10247,,
2023年03月06日,16823,10297,,
2023年03月07日,16919,10354,,
2023年03月08日,16977,10386,,
2023年03月09日,16927,10355,,
2023年03月10日,16594,10160,,
2023年03月13日,16184,9916,,
2023年03月14日,16075,9857,,
2023年03月15日,16066,9854,,
2023年03月16日,15878,9752,,
2023年03月17日,15920,9812,,
2023年03月20日,15898,9822,,
2023年03月22日,15848,9792,,
2023年03月23日,15793,9776,,
2023年03月24日,15870,9841,,
2023年03月27日,15810,9808,,
2023年03月28日,15728,9759,,
2023年03月29日,15931,9897,,
2023年03月30日,16235,10088,,
2023年03月31日,16499,10301,,
